,C/O ratio,CH4 in,CH4 out,CO out,H2 out,H2O out,CO2 out,Exit temp,Max temp,Dist to max temp,O2 conv,Max CH4 Conv,Dist to 50 CH4 Conv
0,0.6000000000000001,0.04220610931192466,0.04217182785570183,6.670024329158894e-07,6.187705229405055e-07,6.743428118486729e-05,3.3186310617020864e-05,704.2406719687273,704.2406719687273,20.01,0.001915630031487107,-4.030390036297016e-06,510.0
1,0.7000000000000002,0.04764223879568619,0.04759212432128015,8.312420204680742e-07,1.1023675413466886e-06,9.841409626279343e-05,4.870444130608075e-05,706.0233160303708,706.0233160303708,20.01,0.0028942672273259587,-6.283774781762341e-06,510.0
2,0.8,0.05273657570711542,0.052664829895790216,1.0426796227726782e-06,1.903195281527439e-06,0.00014059870672356766,6.992294188311184e-05,708.3927457297632,708.3927457297632,20.01,0.004275968782137456,-9.82415259212499e-06,510.0
3,0.9000000000000001,0.05752037248751414,0.05741814385390634,1.3389239766291692e-06,3.264825165428412e-06,0.00019981218208920602,9.983016185510065e-05,711.65444703242,711.65444703242,20.01,0.006278459742900653,-1.5856996025270798e-05,510.0
4,0.9999999999999999,0.06202118410625546,0.061873098343032125,1.8131802611572624e-06,5.759904548016497e-06,0.00028845162835255625,0.00014480231185666647,716.464987888543,716.464987888543,20.01,0.009358264728239167,-2.7767952458235268e-05,510.0
5,1.1,0.0662633991614029,0.06603549866864739,2.795718894700713e-06,1.1277250785035187e-05,0.0004415968417969436,0.0002229523722311074,724.6954422205208,724.6954422205208,70.0,0.014790538716096974,-5.985670834401935e-05,510.0
6,1.2,0.07026868199272561,0.06980771184809215,7.697618992044906e-06,3.687837780927969e-05,0.0008796715145945966,0.00044937038929751945,748.1826792678366,748.1826792678366,70.0,0.030520017782768166,-0.00033253088732171365,510.0
7,1.3000000000000003,0.07405634272972031,0.026505707080599683,0.04456685209140005,0.08846342883286548,0.006565761092998822,0.0029167424201248294,1123.8001034660306,1240.7765278008403,19.19,0.9999996975641593,-0.36418058573649964,70.0
8,1.3999999999999995,0.07764364861664726,0.03002253202423902,0.04491489953424199,0.08990278365644258,0.005267706564989147,0.0026385224525416126,1072.1407162227301,1226.1519295532528,17.96,0.9999999999999999,-0.33505945726423764,70.0
9,1.6000000000000005,0.08427758988601222,0.03867844956343759,0.042889106611908465,0.08661300330761935,0.004508184325953963,0.0026380741137260505,1035.7532133210273,1201.330604515566,16.16,1.0,-0.28514704742778896,70.0
10,1.8,0.09027684884714632,0.04698374535330575,0.04052655016015786,0.08225571652297867,0.004247198313463137,0.002690006280417878,1016.3517979081258,1180.59164254749,14.940000000000001,1.0,-0.24666761149149952,510.0
11,2.0,0.09572834938139431,0.05466716985172938,0.03822455875330082,0.07790491669007572,0.004128032594218365,0.0027557721004725314,1002.8733550287751,1162.6707607704766,14.06,1.0,-0.21426226788418684,510.0
12,2.2,0.10070383531597825,0.061736120485004896,0.03605860324606215,0.07377304934038584,0.004067122258438834,0.0028243542961183545,992.4474195917418,1146.848323881009,13.430000000000001,1.0,-0.1888687659032648,510.0
13,2.4,0.10526304553491962,0.0682400976144583,0.03404363578920674,0.0699111592546159,0.004033910641850045,0.002891010583657002,983.8847412283232,1132.6288209506504,12.950000000000001,1.0,-0.1658152911849453,510.0
14,2.6000000000000005,0.10945612414928066,0.07423441845771359,0.032176532515810805,0.0663225673930499,0.004014690576035754,0.0029536263548183097,976.5773619232698,1119.7094951337635,12.59,1.0,-0.1482034009371455,510.0
