,C/O ratio,CH4 in,CH4 out,CO out,H2 out,H2O out,CO2 out,Exit temp,Max temp,Dist to max temp,O2 conv,Max CH4 Conv,Dist to 50 CH4 Conv
0,0.6000000000000001,0.04220610931192466,0.042142939064259366,9.791436293251449e-07,9.397804087719529e-07,0.0001244893788862736,6.146665519614385e-05,707.8304674926999,707.8304674926999,20.01,0.003536510175663311,-8.195177352010585e-06,510.0
1,0.7000000000000002,0.04764223879568619,0.047550884147360355,1.2548325824564056e-06,1.765452286662519e-06,0.00017966891516590184,8.91138069515455e-05,710.9911638051984,710.9911638051984,20.01,0.005283335163225111,-1.3216090911927214e-05,510.0
2,0.8,0.05273657570711542,0.05260460878808261,1.6653561558243592e-06,3.2924552894895234e-06,0.000258851891248978,0.00012894989384101347,715.433336808748,715.433336808748,20.01,0.007872037138442697,-2.2382170144358282e-05,510.0
3,0.9000000000000001,0.05752037248751414,0.05732349730158509,2.4088805080250044e-06,6.480139719069184e-06,0.000384691993914164,0.0001925577079045854,722.3917857813099,722.3917857813099,70.0,0.012092344827727856,-4.330581757708285e-05,510.0
4,1.0,0.06202118410625546,0.0616875894164544,4.572587248888914e-06,1.620916635312034e-05,0.0006468994547553165,0.0003260514618414999,736.789470153368,736.789470153368,70.0,0.021031754360455387,-0.00012953220930519982,510.0
5,1.1,0.0662633991614029,0.018395908359358563,0.044089921349777655,0.08716039424749494,0.008519143842786736,0.0037270899089760783,1225.4883795588155,1277.435081102509,19.73,0.9971008631996027,-0.43395777204323566,70.0
6,1.2,0.07026868199272561,0.01992379701610295,0.04768829692568717,0.09497349986853118,0.005661284452921472,0.00260376573699773,1102.7925335284388,1257.4015098720226,18.400000000000002,0.9999999999998823,-0.39393357977191773,70.0
7,1.3000000000000003,0.07405634272972031,0.024533519976285126,0.04691183420146024,0.09403890835754253,0.004946958901829579,0.0025537756758018805,1071.5905063840307,1240.55522674483,17.330000000000002,1.0,-0.3560973828459435,70.0
8,1.3999999999999995,0.07764364861664726,0.029276388525326994,0.04574927680787414,0.09207301910324571,0.004597021434043865,0.002556696752544321,1052.8628911168998,1225.8987309704655,16.46,1.0,-0.33551121740116596,70.0
9,1.6000000000000003,0.08427758988601221,0.03835836390936048,0.043204372963369916,0.08747475220215817,0.004273898154323078,0.0026089126183473908,1028.9481197465027,1201.1932440937621,15.150000000000002,1.0,-0.28583318107322925,70.0
10,1.7999999999999996,0.09027684884714632,0.04684610912459215,0.04068009967578629,0.08265889619419052,0.004121534290933399,0.0026760655250278056,1012.9857938383393,1180.3475699968449,14.230000000000002,1.0,-0.2452965131223367,510.0
11,2.0,0.09572834938139431,0.05458823953327698,0.038308435527641384,0.07814024156640859,0.0040518594364185945,0.002751921336161252,1001.0023733874225,1162.42039715157,13.56,1.0,-0.2154667325756754,510.0
12,2.2,0.10070383531597825,0.06168827896793598,0.03610472120619524,0.07392004549924432,0.00401648818722989,0.0028266129828944716,991.35384887248,1146.562714474722,13.06,1.0,-0.1891208049481244,510.0
13,2.4,0.10526304553491962,0.06821066418905274,0.03406696737164491,0.07000611757141269,0.003998074561596591,0.002897263205849789,983.2428338680514,1132.3149264324345,12.67,1.0,-0.16646553685576854,510.0
14,2.6,0.10945612414928066,0.07421672507254708,0.03218507613650821,0.06638448469361281,0.003988104228264853,0.0029626479391887416,976.2180717183071,1119.3823611355103,12.38,1.0,-0.14884005494767288,510.0
