,C/O ratio,CH4 in,CH4 out,CO out,H2 out,H2O out,CO2 out,Exit temp,Max temp,Dist to max temp,O2 conv,Max CH4 Conv,Dist to 50 CH4 Conv
0,0.6000000000000001,0.04220610931192466,0.04214293906425924,9.791436293254585e-07,9.397804087727005e-07,0.0001244893788863456,6.146665519617939e-05,707.8304674927117,707.8304674927117,20.01,0.0035365101756648894,-8.195177352704475e-06,510.0
1,0.7000000000000002,0.04764223879568619,0.04755088414736065,1.2548325824552013e-06,1.7654522866595922e-06,0.0001796689151657138,8.911380695145576e-05,710.991163805176,710.991163805176,20.01,0.00528333516322246,-1.3216090913314993e-05,510.0
2,0.8,0.05273657570711542,0.052604608788082735,1.6653561558246228e-06,3.2924552894899007e-06,0.0002588518912490017,0.00012894989384102526,715.4333368087524,715.4333368087524,20.01,0.007872037138444591,-2.2382170142970503e-05,510.0
3,0.8999999999999997,0.057520372487514126,0.0573234973015843,2.4088805080278678e-06,6.480139719079006e-06,0.0003846919939145055,0.000192557707904759,722.3917857812456,722.3917857812456,70.0,0.012092344827729374,-4.330581757569507e-05,510.0
4,1.0,0.06202118410625546,0.06168758941645525,4.572587248883352e-06,1.6209166353095046e-05,0.0006468994547547476,0.0003260514618412168,736.7894701533103,736.7894701533103,70.0,0.021031754360445652,-0.00012953220930381204,510.0
5,1.1,0.0662633991614029,0.01839590835804676,0.04408992134993001,0.08716039425037865,0.00851914384278408,0.0037270899090272916,1225.48837954793,1277.4350810997903,19.73,0.9971008632006497,-0.43395777202516955,70.0
6,1.2,0.07026868199272561,0.01992379701697937,0.047688296927672305,0.0949734998667021,0.005661284452008704,0.0026037657367310517,1102.792533527155,1257.4015098728457,18.400000000000002,0.9999999999998823,-0.3939335797931709,70.0
7,1.2999999999999996,0.07405634272972028,0.024533519977813164,0.04691183419513432,0.09403890835578009,0.004946958903973787,0.0025537756763260987,1071.590506393689,1240.555226745429,17.330000000000002,1.0,-0.35609738283811226,70.0
8,1.3999999999999995,0.07764364861664726,0.029276388536903935,0.04574927679665034,0.0920730190873182,0.0045970214354734635,0.002556696752821268,1052.8628911193432,1225.898730953284,16.46,1.0,-0.33551121734649997,70.0
9,1.6000000000000005,0.08427758988601222,0.038406619309236265,0.043196864711001245,0.08740337719175023,0.004265349956188607,0.002605616992516882,1028.9143751437261,1201.069070868539,15.160000000000002,1.0,-0.2857011791838171,70.0
10,1.7999999999999998,0.09027684884714632,0.046846109120745036,0.04068009968858283,0.08265889619576158,0.004121534287784089,0.0026760655238247224,1012.9857938518683,1180.3475699945277,14.230000000000002,1.0,-0.2452965131202703,510.0
11,2.0,0.09572834938139431,0.05458823953746791,0.038308435525345914,0.07814024155876642,0.0040518594369038236,0.0027519213360872987,1001.0023734054998,1162.4203971568015,13.56,1.0,-0.2154667325932641,510.0
12,2.2,0.10070383531597825,0.06168827897734999,0.03610472119809129,0.07392004548824531,0.004016488187743886,0.0028266129831528994,991.3538488652972,1146.5627144747996,13.06,1.0,-0.18912080495445543,510.0
13,2.4,0.10526304553491961,0.06821066421398043,0.034066967337559186,0.0700061175469424,0.003998074567772605,0.0028972632080612325,983.2428338486121,1132.3149264339845,12.67,1.0,-0.16646553685366883,510.0
14,2.6000000000000005,0.10945612414928066,0.07421672507547378,0.03218507613923942,0.06638448468429531,0.00398810422775397,0.002962647938617671,976.2180717541823,1119.3823611323635,12.38,1.0,-0.14884005495191255,510.0
