,C/O ratio,CH4 in,CH4 out,CO out,H2 out,H2O out,CO2 out,Exit temp,Max temp,Dist to max temp,O2 conv,Max CH4 Conv,Dist to 50 CH4 Conv
0,0.6000000000000001,0.04220610931192466,0.04214293906298167,9.791436350357821e-07,9.397804281613001e-07,0.00012448938134539678,6.146665636742075e-05,707.8304676438361,707.8304676438361,20.01,0.0035365102432710384,-8.195177427644529e-06,510.0
1,0.7000000000000002,0.04764223879568619,0.04755088414736061,1.254832582455382e-06,1.7654522866599016e-06,0.00017966891516572693,8.911380695146084e-05,710.9911638051791,710.9911638051791,20.01,0.0052833351632230715,-1.3216090911233325e-05,510.0
2,0.7999999999999998,0.05273657570711541,0.052604608788082936,1.665356155823735e-06,3.2924552894872952e-06,0.0002588518912488449,0.00012894989384094703,715.4333368087395,715.4333368087395,20.01,0.007872037138441432,-2.2382170142970503e-05,510.0
3,0.8999999999999999,0.057520372487514126,0.05732349730158338,2.4088805080273316e-06,6.480139719079048e-06,0.00038469199391454934,0.00019255770790478516,722.3917857813002,722.3917857813002,70.0,0.012092344827725903,-4.330581757708285e-05,510.0
4,1.0,0.06202118410625546,0.06168758941645522,4.572587248888749e-06,1.6209166353101176e-05,0.0006468994547549712,0.0003260514618413232,736.7894701533758,736.7894701533758,70.0,0.021031754360454378,-0.0001295322093003426,510.0
5,1.1,0.0662633991614029,0.01839590835363564,0.04408992134907539,0.0871603942570017,0.008519143844134191,0.0037270899091311435,1225.4883795533651,1277.4350810879137,19.73,0.9971008632037247,-0.4339577721138986,70.0
6,1.2,0.07026868199272561,0.019923796990608155,0.047688296946398846,0.0949734999131652,0.005661284448241131,0.0026037657363466938,1102.7925333997828,1257.4015098410534,18.400000000000002,0.9999999999998823,-0.3939335797799426,70.0
7,1.2999999999999998,0.0740563427297203,0.024533519933504493,0.04691183421883714,0.09403890842932672,0.004946958901741239,0.0025537756770169775,1071.5905062622533,1240.5552267583898,17.330000000000002,1.0,-0.35609738380382866,70.0
8,1.3999999999999995,0.07764364861664726,0.029276388406440222,0.045749276956612586,0.0920730192773457,0.00459702140240784,0.0025566967456498654,1052.8628908804908,1225.8987309046165,16.46,1.0,-0.33551121722232846,70.0
9,1.6000000000000005,0.08427758988601222,0.03840661929787276,0.04319686473616669,0.0874033772450867,0.004265349932399481,0.0026056169893428813,1028.9143745482288,1201.0690708102898,15.160000000000002,1.0,-0.28570117916925375,70.0
10,1.8,0.09027684884714632,0.04684610917073578,0.04068009957972057,0.08265889615659912,0.004121534310801623,0.0026760655314169886,1012.9857937179771,1180.347569978425,14.230000000000002,1.0,-0.24529651312340806,510.0
11,2.0,0.09572834938139431,0.05458823951678433,0.03830843549346203,0.07814024162382838,0.0040518594436158885,0.0027519213400638005,1001.0023730655007,1162.4203971366176,13.56,1.0,-0.21546673216622375,510.0
12,2.2000000000000006,0.10070383531597826,0.06168827873020421,0.03610472147334996,0.07392004576896385,0.004016488150183117,0.002826612968922753,991.3538490042271,1146.5627144195066,13.06,1.0,-0.1891208048617865,510.0
13,2.4,0.10526304553491962,0.06821066417734652,0.03406696737406738,0.07000611760900889,0.003998074554882841,0.0028972632074875746,983.2428336683761,1132.3149263809837,12.67,1.0,-0.16646553681372994,510.0
14,2.6000000000000005,0.10945612414928066,0.07421672497246394,0.03218507623330284,0.06638448483609535,0.003988104206879723,0.002962647933886566,976.2180714201679,1119.3823610208165,12.38,1.0,-0.14884005501052122,510.0
