,C/O ratio,CH4 in,CH4 out,CO out,H2 out,H2O out,CO2 out,Exit temp,Max temp,Dist to max temp,O2 conv,Max CH4 Conv,Dist to 50 CH4 Conv
0,0.6000000000000001,0.04220610931192466,0.04214293906305881,9.791436347478136e-07,9.397804270824053e-07,0.0001244893811997517,6.146665630057317e-05,707.8304676350511,707.8304676350513,20.0,0.0035365102393482045,-8.195177424868971e-06,510.0
1,0.7000000000000002,0.04764223879568619,0.04755088414707731,1.2548325840734666e-06,1.765452292733733e-06,0.00017966891571405993,8.911380721740152e-05,710.9911638381856,710.9911638381856,20.01,0.005283335178989758,-1.3216090936907232e-05,510.0
2,0.8,0.05273657570711542,0.052604608788083915,1.6653561558238641e-06,3.2924552894473496e-06,0.0002588518912478915,0.00012894989384097032,715.4333368087042,715.4333368087042,20.01,0.007872037138410486,-2.2382170140888835e-05,510.0
3,0.9000000000000001,0.05752037248751414,0.05732349730713875,2.4088805058874947e-06,6.480139715807485e-06,0.00038469198835874407,0.00019255770790450804,722.3917855589376,722.3917855589376,20.01,0.012092344653868143,-4.330581757500118e-05,510.0
4,1.0,0.06202118410625546,0.06168758942922706,4.572587243181055e-06,1.620916634345666e-05,0.000646899441981907,0.00032605146184321135,736.7894696571427,736.7894696571427,20.020000000000003,0.021031753948575007,-0.0001295322093058937,510.0
5,1.1,0.0662633991614029,0.018395908362929533,0.044089921351201135,0.08716039424417266,0.008519143840331362,0.0037270899090946896,1225.4883795411115,1277.435081088635,19.73,0.997100863199218,-0.433957771972196,70.0
6,1.2,0.07026868199272561,0.019923797026010794,0.047688296940500634,0.09497349985145681,0.005661284444854003,0.0026037657346885735,1102.7925334967583,1257.4015099067376,18.400000000000002,0.9999999999998823,-0.39393357971736,70.0
7,1.3000000000000003,0.07405634272972031,0.024533519929936614,0.04691183418596847,0.09403892659578181,0.0049469589046665634,0.002553775676957545,1071.5902119915784,1240.5552267366693,17.330000000000002,1.0,-0.3560973826278152,20.0
8,1.3999999999999995,0.07764364861664726,0.029276388496767447,0.04574927678461565,0.09207303494551773,0.004597021443592129,0.0025566967557020927,1052.8626392573717,1225.8987308994026,16.46,1.0,-0.3355112170923824,20.0
9,1.6000000000000005,0.08427758988601222,0.038406619332278395,0.04319686467603165,0.08740338935500348,0.004265349957101513,0.0026056169933468994,1028.9141864675728,1201.0690708446355,15.160000000000002,1.0,-0.28570117921356136,20.0
10,1.8,0.09027684884714632,0.04684610895404428,0.04068009990915959,0.08265890604029721,0.004121534245277623,0.0026760655094960786,1012.9856484157665,1180.3475700305796,14.230000000000002,1.0,-0.24529651345746722,510.0
11,2.0,0.09572834938139431,0.05458823929519071,0.03830843581362383,0.0781402495546094,0.004051859393239304,0.0027519213207192385,1001.0022598390755,1162.420397137363,13.56,1.0,-0.21546673261673838,510.0
12,2.2,0.10070383531597825,0.061688278859539335,0.036104721284460586,0.07392005186167619,0.00401648818116816,0.002826612981044575,991.3537591705729,1146.5627144996517,13.06,1.0,-0.18912080505762152,510.0
13,2.4,0.10526304553491962,0.06821066416779803,0.034066967352326775,0.07000612263308445,0.003998074565467957,0.0028972632076738843,983.2427627664529,1132.314926381472,12.67,1.0,-0.16646553683176413,510.0
14,2.6,0.10945612414928066,0.07421672484257315,0.032185076379321026,0.06638448895949473,0.003988104191213726,0.0029626479255388666,976.2180158162295,1119.3823610691884,12.38,1.0,-0.14884005494270325,510.0
