,C/O ratio,CH4 in,CH4 out,CO out,H2 out,H2O out,CO2 out,Exit temp,Max temp,Dist to max temp,O2 conv,Max CH4 Conv,Dist to 50 CH4 Conv
0,0.6000000000000001,0.04220610931192466,0.04214293906425934,9.79143629324685e-07,9.397804087711449e-07,0.00012448937888620337,6.146665519610837e-05,707.8304674926898,707.8304674926898,20.01,0.0035365101756617326,-8.195177354092253e-06,510.0
1,0.7000000000000002,0.04764223879568619,0.04755088414736062,1.254832582456353e-06,1.7654522866622614e-06,0.00017966891516588504,8.91138069515413e-05,710.9911638051988,710.9911638051988,20.01,0.005283335163228373,-1.3216090911927214e-05,510.0
2,0.8,0.05273657570711542,0.05260460878808283,1.665356155824449e-06,3.2924552894890774e-06,0.00025885189124894627,0.0001289498938409966,715.4333368087512,715.4333368087512,20.01,0.00787203713844396,-2.2382170142276614e-05,510.0
3,0.9000000000000001,0.05752037248751414,0.0573234973015958,2.4088805080197142e-06,6.480139719061087e-06,0.0003846919938987268,0.00019255770790458466,722.3917857806912,722.3917857806912,70.0,0.012092344827211063,-4.330581757708285e-05,510.0
4,1.0,0.06202118410625546,0.06168758941644873,4.572587248887857e-06,1.6209166353115836e-05,0.0006468994547510012,0.00032605146184148563,736.7894701533229,736.7894701533229,70.0,0.021031754360164835,-0.0001295322093065876,510.0
5,1.1000000000000005,0.06626339916140292,0.01839590835791037,0.04408992134962998,0.08716039425038237,0.008519143843003764,0.0037270899090761623,1225.4883795518485,1277.4350810980459,19.73,0.9971008632001674,-0.43395777204877567,70.0
6,1.2,0.07026868199272561,0.019923797013332765,0.047688296930072586,0.09497349987253242,0.005661284451728228,0.0026037657367345116,1102.79253351753,1257.4015098829586,18.400000000000002,0.9999999999998823,-0.39393357977726556,70.0
7,1.3000000000000003,0.07405634272972031,0.02453351997354306,0.04691183419693685,0.09403890836241836,0.004946958904199911,0.00255377567643574,1071.5905063891682,1240.5552267507142,17.330000000000002,1.0,-0.35609738283011727,70.0
8,1.3999999999999995,0.07764364861664726,0.029276388523470497,0.04574927681312932,0.09207301910553377,0.004597021432632083,0.002556696752102183,1052.862891113452,1225.898730950389,16.46,1.0,-0.3355112173306113,70.0
9,1.6000000000000005,0.08427758988601222,0.038358363917004853,0.043204372958644446,0.08747475219054747,0.004273898154416586,0.002608912618243351,1028.948119750691,1201.1932440793257,15.150000000000002,1.0,-0.28583318099251603,70.0
10,1.8,0.09027684884714633,0.046846109120029934,0.04068009969544749,0.08265889619564418,0.0041215342853853235,0.002676065522966546,1012.9857938407458,1180.347570002367,14.230000000000002,1.0,-0.2452965131231638,510.0
11,2.0,0.09572834938139431,0.054113043117480254,0.03860555295968095,0.07885810884429928,0.004080902742865159,0.0027595162510823546,1001.7965676097014,1164.036166832849,13.56,1.0,-0.21653154337445413,510.0
12,2.2,0.10070383531597825,0.06165143313738505,0.03614291909229882,0.07397186808429808,0.004015639411863191,0.0028254539733795444,991.4794338492856,1146.7207356255235,13.070000000000002,1.0,-0.1887303978228297,510.0
13,2.4,0.10526304553491962,0.06787689030467918,0.03428045443560638,0.07050625994333762,0.0040157490463468585,0.0029014350854976536,983.7937026436706,1133.5008221774058,12.68,1.0,-0.168626646187163,510.0
14,2.6000000000000005,0.10945612414928066,0.07395786999267055,0.03236273028931725,0.06677779341933578,0.003998928893827393,0.002964198164377775,976.6793330597054,1120.3724144413798,12.38,1.0,-0.1505030396214871,510.0
