,C/O ratio,CH4 in,CH4 out,CO out,H2 out,H2O out,CO2 out,Exit temp,Max temp,Dist to max temp,O2 conv,Max CH4 Conv,Dist to 50 CH4 Conv
0,0.6000000000000001,0.04220610931192466,0.04217182785570186,6.670024329158846e-07,6.187705229376563e-07,6.743428118479015e-05,3.318631061702683e-05,704.2406719687235,704.2406719687235,20.01,0.001915630031484345,-4.030390035603126e-06,510.0
1,0.7000000000000002,0.04764223879568619,0.047592124321280044,8.312420204678667e-07,1.1023675413391136e-06,9.841409626257664e-05,4.870444130606986e-05,706.0233160303549,706.0233160303549,20.01,0.00289426722731556,-6.283774781762341e-06,510.0
2,0.8,0.05273657570711542,0.05266482989579052,1.0426796227725548e-06,1.9031952815173715e-06,0.00014059870672335591,6.992294188315281e-05,708.3927457297525,708.3927457297525,20.01,0.00427596878213072,-9.82415259281888e-06,510.0
3,0.9000000000000001,0.05752037248751414,0.057418143853906575,1.3389239766302062e-06,3.2648251654236823e-06,0.00019981218208916084,9.98301618551955e-05,711.6544470324287,711.6544470324287,20.01,0.00627845974290087,-1.5856996027352466e-05,510.0
4,1.0,0.06202118410625546,0.06187309834303194,1.8131802611584493e-06,5.759904548023479e-06,0.00028845162835282404,0.00014480231185679698,716.4649878885631,716.4649878885631,20.01,0.009358264728247336,-2.7767952458235268e-05,510.0
5,1.1000000000000005,0.06626339916140292,0.0660354986686474,2.795718894699073e-06,1.1277250785027628e-05,0.0004415968417967383,0.00022295237223099747,724.6954422204298,724.6954422204298,70.0,0.01479053871608246,-5.985670834263157e-05,510.0
6,1.1999999999999995,0.07026868199272561,0.0698077118480897,7.69761899213566e-06,3.687837780969155e-05,0.0008796715146001669,0.00044937038930034526,748.1826792681425,748.1826792681425,70.0,0.03052001778297304,-0.00033253088732726477,510.0
7,1.2999999999999998,0.0740563427297203,0.02650570707964986,0.04456685208942467,0.08846342883433118,0.006565761094064166,0.0029167424204501347,1123.8001034748602,1240.7765278039642,19.19,0.9999996975641594,-0.3641805857384037,70.0
8,1.3999999999999995,0.07764364861664726,0.03002253196696237,0.04491489957518063,0.08990278374533238,0.005267706560584225,0.0026385224524742776,1072.1407161247168,1226.1519295105534,17.96,0.9999999999999999,-0.33505945738870474,70.0
9,1.6000000000000003,0.08427758988601221,0.038678449563041166,0.04288910661520145,0.08661300331933239,0.0045081843200888965,0.002638074112324703,1035.7532131240105,1201.3306044848089,16.16,1.0,-0.28514704692104015,70.0
10,1.8,0.09027684884714632,0.04698374527828919,0.04052655020509119,0.08225571663971125,0.004247198309621948,0.0026900062814504363,1016.3517977748181,1180.591642559129,14.940000000000001,1.0,-0.2466676115366384,510.0
11,2.0,0.09572834938139431,0.054667169913174246,0.03822455872071834,0.07790491661763184,0.004128032587484858,0.002755772098675025,1002.8733548572158,1162.6707607275262,14.06,1.0,-0.21426226796583958,510.0
12,2.2,0.10070383531597825,0.0617361203062181,0.036058603487979374,0.07377304956384564,0.004067122203218146,0.0028243542789548382,992.447419246603,1146.848323927899,13.430000000000001,1.0,-0.18886876607202285,510.0
13,2.4,0.10526304553491962,0.06824009725620377,0.034043636280280155,0.06991115962248651,0.0040339105453345205,0.002891010553413192,983.8847413730414,1132.6288209747058,12.950000000000001,1.0,-0.16581529116349025,510.0
14,2.6000000000000005,0.10945612414928066,0.07423441815820564,0.0321765329157718,0.06632256770589533,0.004014690491479798,0.0029536263303272933,976.5773618876543,1119.7094951360846,12.59,1.0,-0.14820340091109135,510.0
