,C/O ratio,CH4 in,CH4 out,CO out,H2 out,H2O out,CO2 out,Exit temp,Max temp,Dist to max temp,O2 conv,Max CH4 Conv,Dist to 50 CH4 Conv
0,0.6000000000000001,0.04220610931192466,0.04217182785570183,6.670024329157906e-07,6.187705229403957e-07,6.743428118486079e-05,3.318631061701763e-05,704.2406719687206,704.2406719687206,20.01,0.0019156300314873043,-4.030390036297016e-06,510.0
1,0.7000000000000002,0.04764223879568619,0.04759212432128008,8.312420204677054e-07,1.1023675413458003e-06,9.841409626273694e-05,4.870444130605232e-05,706.0233160303582,706.0233160303582,20.01,0.0028942672273224923,-6.283774782456231e-06,510.0
2,0.8,0.05273657570711542,0.05266482989579023,1.0426796227730166e-06,1.9031952815287709e-06,0.00014059870672364702,6.992294188315173e-05,708.3927457297698,708.3927457297698,20.01,0.004275968782141667,-9.824152591431101e-06,510.0
3,0.8999999999999999,0.057520372487514126,0.0574181438539063,1.3389239766305431e-06,3.2648251654334206e-06,0.00019981218208942536,9.983016185521132e-05,711.6544470324365,711.6544470324365,20.01,0.006278459742909556,-1.5856996026658576e-05,510.0
4,1.0,0.06202118410625546,0.06187309834303206,1.8131802611585624e-06,5.759904548021833e-06,0.000288451628352744,0.00014480231185676058,716.4649878885582,716.4649878885582,20.01,0.009358264728245769,-2.7767952458235268e-05,510.0
5,1.1000000000000005,0.06626339916140292,0.06603549866864747,2.79571889470507e-06,1.1277250785055854e-05,0.00044159684179744945,0.0002229523722313652,724.6954422204874,724.6954422204874,70.0,0.01479053871612151,-5.985670834540713e-05,510.0
6,1.2,0.07026868199272561,0.06980771184809406,7.697618991991513e-06,3.687837780901916e-05,0.0008796715145912476,0.0004493703892957765,748.1826792676976,748.1826792676976,70.0,0.030520017782652394,-0.0003325308873203259,510.0
7,1.3000000000000003,0.07405634272972031,0.02650570707958985,0.04456685209107332,0.08846342883486712,0.006565761093301881,0.0029167424201875735,1123.8001034623076,1240.7765277986223,19.19,0.9999996975641596,-0.36418058571784373,70.0
8,1.3999999999999995,0.07764364861664726,0.03002253203218864,0.04491489951866918,0.0899027836446576,0.005267706569708231,0.002638522453608588,1072.140716262305,1226.151929550465,17.96,0.9999999999999999,-0.3350594572649357,70.0
9,1.6000000000000003,0.08427758988601221,0.03867223919174684,0.042890770786480306,0.0866218355448719,0.004509104562099503,0.0026384096731342462,1035.7590354087342,1201.34758690344,16.16,1.0,-0.2851033135967698,70.0
10,1.8,0.09027684884714632,0.046983745385577674,0.0405265501123487,0.08225571648703289,0.004247198322378105,0.0026900062832920027,1016.3517978859855,1180.5916425929179,14.940000000000001,1.0,-0.24666761151063837,510.0
11,2.0,0.09572834938139431,0.05466716986480426,0.03822455873579675,0.07790491667459697,0.004128032597399407,0.0027557721017043217,1002.8733550357521,1162.6707607804894,14.06,1.0,-0.21426226782456786,510.0
12,2.2,0.10070383531597825,0.061736120498860014,0.03605860322748057,0.0737730493254943,0.004067122261907754,0.0028243542972543863,992.4474195878815,1146.848323883078,13.430000000000001,1.0,-0.18886876594935847,510.0
13,2.4,0.10526304553491962,0.06824009764813897,0.034043635742573713,0.06991115922377979,0.004033910649851014,0.002891010586641831,983.8847411817053,1132.6288209636077,12.950000000000001,1.0,-0.1658152911173827,510.0
14,2.6000000000000005,0.10945612414928066,0.07423441846604363,0.03217653251165043,0.06632256738175554,0.004014690575657343,0.0029536263545545676,976.5773619156583,1119.709495149009,12.59,1.0,-0.14820340092811524,510.0
