,C/O ratio,CH4 in,CH4 out,CO out,H2 out,H2O out,CO2 out,Exit temp,Max temp,Dist to max temp,O2 conv,Max CH4 Conv,Dist to 50 CH4 Conv
0,0.6000000000000001,0.04220610931192466,0.042142939064259206,9.791436293254756e-07,9.397804087730973e-07,0.00012448937888640145,6.14666551962074e-05,707.830467492711,707.830467492711,20.01,0.0035365101756662702,-8.195177353398364e-06,510.0
1,0.7000000000000002,0.04764223879568619,0.04755088414736066,1.2548325824552754e-06,1.765452286660725e-06,0.00017966891516582074,8.911380695150982e-05,710.9911638051769,710.9911638051769,20.01,0.005283335163226334,-1.3216090911233325e-05,510.0
2,0.8,0.05273657570711542,0.05260460878808279,1.665356155823955e-06,3.2924552894884468e-06,0.0002588518912489419,0.0001289498938409954,715.4333368087357,715.4333368087357,20.01,0.007872037138443328,-2.2382170143664393e-05,510.0
3,0.9000000000000001,0.05752037248751414,0.057323497301584925,2.40888050802903e-06,6.480139719083466e-06,0.00038469199391467484,0.00019255770790484677,722.3917857813433,722.3917857813433,70.0,0.01209234482774588,-4.330581757777674e-05,510.0
4,1.0,0.06202118410625546,0.06168758941645444,4.572587248888373e-06,1.620916635311482e-05,0.0006468994547552122,0.00032605146184145294,736.7894701533569,736.7894701533569,70.0,0.021031754360452144,-0.0001295322093058937,510.0
5,1.1000000000000005,0.06626339916140292,0.018393459973135164,0.04408856728198246,0.08715866708498644,0.00852328347801127,0.003727843750279473,1225.608887807939,1277.4702180153722,19.740000000000002,0.9970835477021432,-0.43436908701414284,70.0
6,1.2,0.07026868199272561,0.019923797017837416,0.04768829692723193,0.09497349986535744,0.005661284452008509,0.0026037657367197794,1102.792533528683,1257.401509873184,18.400000000000002,0.9999999999998823,-0.39393357978430504,70.0
7,1.2999999999999998,0.0740563427297203,0.024533519978739288,0.046911834194118034,0.09403890835449366,0.004946958904134689,0.0025537756763584617,1071.59050639413,1240.5552267454725,17.330000000000002,1.0,-0.3560973828241429,70.0
8,1.3999999999999995,0.07764364861664726,0.02927638853701529,0.04574927679574504,0.09207301908736436,0.004597021435735066,0.0025566967529158675,1052.8628911189844,1225.898730954013,16.46,1.0,-0.3355112173385799,70.0
9,1.6000000000000003,0.08427758988601221,0.038406619310164355,0.0431968647096473,0.08740337719078749,0.004265349956403117,0.002605616992569633,1028.9143751409806,1201.069070868234,15.160000000000002,1.0,-0.2857011791746439,70.0
10,1.7999999999999998,0.09027684884714632,0.04684610911912323,0.04068009969006081,0.08265889619771521,0.004121534287674931,0.002676065523793902,1012.9857938535257,1180.3475699942853,14.230000000000002,1.0,-0.24529651312006212,510.0
11,2.0,0.09572834938139431,0.05458823953847853,0.03830843552373464,0.07814024155770631,0.004051859437257316,0.0027519213361813875,1001.0023734049496,1162.4203971568495,13.56,1.0,-0.215466732594205,510.0
12,2.2,0.10070383531597825,0.061688278979649264,0.03610472119662447,0.07392004548530383,0.004016488187684515,0.002826612983145417,991.3538488633449,1146.56271447587,13.06,1.0,-0.18912080495174788,510.0
13,2.4,0.10526304553491961,0.06821066421785825,0.03406696733353643,0.07000611754292291,0.003998074568222111,0.0028972632082264914,983.2428338432293,1132.314926435582,12.67,1.0,-0.16646553685465415,510.0
14,2.6000000000000005,0.10945612414928066,0.07421672507232419,0.03218507614284205,0.06638448468736548,0.003988104227244165,0.0029626479384556974,976.2180717591889,1119.3823611313721,12.38,1.0,-0.14884005494781444,510.0
