,C/O ratio,CH4 in,CH4 out,CO out,H2 out,H2O out,CO2 out,Exit temp,Max temp,Dist to max temp,O2 conv,Max CH4 Conv,Dist to 50 CH4 Conv
0,0.6000000000000001,0.04220610931192466,0.04217182787511048,6.670014294845766e-07,6.187699895922638e-07,6.743424286721253e-05,3.3186292179153576e-05,704.2406695705052,704.2406695705052,20.01,0.001915628948658469,-4.030387393966217e-06,510.0
1,0.7000000000000002,0.04764223879568619,0.0475921243500338,8.312407402689278e-07,1.1023665775245895e-06,9.841403968339647e-05,4.870441379653561e-05,706.0233125682137,706.0233125682137,20.01,0.0028942655692711958,-6.283770376258602e-06,510.0
2,0.8,0.05273657570711542,0.0526648299387833,1.0426779536518884e-06,1.9031935419902512e-06,0.0001405986224586374,6.992290053450096e-05,708.392740683881,708.392740683881,20.01,0.004275966224480875,-9.82414487468719e-06,510.0
3,0.9000000000000001,0.05752037248751414,0.057418143920581616,1.3389216934460673e-06,3.2648219083049856e-06,0.00019981205204363853,9.983009748541023e-05,711.6544394085073,711.6544394085073,20.01,0.006278455658292657,-1.5856981153833383e-05,510.0
4,0.9999999999999999,0.06202118410625546,0.06187309845553022,1.8131768058841223e-06,5.759897793943331e-06,0.000288451410364897,0.00014480220298464136,716.4649753802028,716.4649753802028,20.01,0.00935825764654854,-2.7767917991361468e-05,510.0
5,1.1,0.0662633991614029,0.06603549890238317,2.795712146872499e-06,1.1277232403986838e-05,0.000441596393724678,0.00022295214596258957,724.6954170907256,724.6954170907256,70.0,0.014790523650704698,-5.985658644847014e-05,510.0
6,1.2,0.07026868199272561,0.06980771309675235,7.69757157740389e-06,3.687819507315654e-05,0.0008796692087407361,0.0004493691943753393,748.182553401033,748.182553401033,70.0,0.030519936752753506,-0.0003325281913046929,510.0
7,1.2999999999999998,0.0740563427297203,0.026505717902637792,0.044566836831798455,0.08846340071090182,0.006565767524683907,0.0029167468320774512,1123.8004087354734,1240.7765989659601,19.19,0.9999996975410326,-0.36417403669557896,70.0
8,1.3999999999999995,0.07764364861664726,0.030022534345879842,0.04491489685755049,0.08990277702430655,0.005267708545912059,0.0026385227968185932,1072.1407875221773,1226.15194508962,17.96,0.9999999999999999,-0.33506200968745903,70.0
9,1.6000000000000003,0.08427758988601221,0.038675041556773364,0.042889699866087115,0.08661769936609666,0.004508746657031282,0.0026382895278754238,1035.7553429923669,1201.3393201875022,16.16,1.0,-0.28508538171290454,70.0
10,1.7999999999999998,0.09027684884714632,0.046983746279186424,0.040526548913311485,0.08225571403638134,0.004247198942680803,0.0026900065852988294,1016.3518314289294,1180.5916794726777,14.940000000000001,1.0,-0.2466684336391481,510.0
11,2.0,0.09572834938139431,0.0546671707316488,0.03822455754504831,0.07790491440645465,0.004128033146804945,0.0027557724084530445,1002.8733856153632,1162.6707744199362,14.06,1.0,-0.21426289075688054,510.0
12,2.2,0.10070383531597825,0.06173612126391422,0.03605860215019293,0.07377304721121429,0.004067122769323416,0.0028243546041220487,992.4474488879277,1146.8483505098336,13.430000000000001,1.0,-0.18886858930652894,510.0
13,2.4,0.10526304553491962,0.0680444396257358,0.03415272871412038,0.07020249421526442,0.004048354710276842,0.00289554874445882,984.1793451373146,1133.2775627490091,12.950000000000001,1.0,-0.16713027327699137,510.0
14,2.6000000000000005,0.10945612414928066,0.07423441923725428,0.03217653135941292,0.0663225652895742,0.004014691032738241,0.0029536267242142597,976.5773903120094,1119.7095213908678,12.59,1.0,-0.14820319032367163,510.0
