,C/O ratio,CH4 in,CH4 out,CO out,H2 out,H2O out,CO2 out,Exit temp,Max temp,Dist to max temp,O2 conv,Max CH4 Conv,Dist to 50 CH4 Conv
0,0.6000000000000001,0.04220610931192466,0.04214293906333814,9.791436335036177e-07,9.397804228741165e-07,0.0001244893806621289,6.146665604494214e-05,707.8304676020467,707.8304676020467,20.01,0.003536510224591412,-8.195177409603405e-06,510.0
1,0.7000000000000002,0.04764223879568619,0.047550884147191934,1.2548325834134e-06,1.7654522902455648e-06,0.00017966891549137416,8.911380710874156e-05,710.9911638247441,710.9911638247441,20.01,0.005283335172567592,-1.3216090925805002e-05,510.0
2,0.8,0.05273657570711542,0.05260460878808276,1.6653561558255235e-06,3.2924552894914194e-06,0.0002588518912490614,0.00012894989384106117,715.4333368087607,715.4333368087607,20.01,0.007872037138447538,-2.2382170142276614e-05,510.0
3,0.8999999999999999,0.057520372487514126,0.05732349730158405,2.408880508028238e-06,6.480139719081783e-06,0.00038469199391462453,0.00019255770790481348,722.3917857813007,722.3917857813007,70.0,0.012092344827730462,-4.3305817572225624e-05,510.0
4,0.9999999999999999,0.06202118410625546,0.06168758941645497,4.572587248896721e-06,1.6209166353161847e-05,0.0006468994547564406,0.00032605146184204925,736.7894701533918,736.7894701533918,70.0,0.02103175436051871,-0.0001295322093065876,510.0
5,1.1000000000000005,0.06626339916140292,0.018395908343462802,0.04408992135089288,0.08716039427927091,0.008519143843459049,0.0037270899094360484,1225.4883794477266,1277.435081111259,19.73,0.9971008632031866,-0.4339577719927913,70.0
6,1.2,0.07026868199272561,0.01992379701408089,0.04768829693583348,0.09497349987255947,0.005661284448376996,0.0026037657359237244,1102.7925334742602,1257.4015098678324,18.400000000000002,0.9999999999998823,-0.39393357977116,70.0
7,1.3000000000000003,0.07405634272972031,0.024533519908401424,0.046911834274351825,0.09403890847160144,0.004946958882560138,0.002553775673037959,1071.5905060625705,1240.555226745556,17.330000000000002,1.0,-0.3560973828066444,70.0
8,1.3999999999999995,0.07764364861664726,0.029276388482396103,0.04574927682131808,0.09207301917101081,0.0045970214376714145,0.0025566967542986377,1052.862891065364,1225.8987309124739,16.46,1.0,-0.33551121739380796,70.0
9,1.6000000000000003,0.08427758988601221,0.0384066194046636,0.043196864525741764,0.08740337709844939,0.004265349991857102,0.002605617004900628,1028.914374902275,1201.0690708884288,15.160000000000002,1.0,-0.2857011788112776,70.0
10,1.7999999999999998,0.09027684884714632,0.04684610907416545,0.04068009971735862,0.08265889628437105,0.004121534280270508,0.002676065523035134,1012.9857935571797,1180.3475699685475,14.230000000000002,1.0,-0.2452965131307966,510.0
11,2.0,0.09572834938139431,0.05458823940312855,0.03830843566737089,0.07814024173594458,0.004051859415155479,0.0027519213278293752,1001.0023732564368,1162.4203969795894,13.56,1.0,-0.21546673247919146,510.0
12,2.2,0.10070383531597825,0.061688278918805746,0.036104721227792895,0.07392004560334635,0.004016488180075347,0.002826612982125622,991.3538484591088,1146.5627143748657,13.06,1.0,-0.18912080490539607,510.0
13,2.4,0.10526304553491962,0.06821066431699471,0.034066967192789024,0.070006117466313,0.003998074589169297,0.0028972632159416476,983.2428335226347,1132.3149264730007,12.67,1.0,-0.16646553691476718,510.0
14,2.6,0.10945612414928066,0.07421672492550678,0.032185076313547896,0.06638448486638424,0.003988104191081823,0.0029626479291426683,976.218071589922,1119.3823611387197,12.38,1.0,-0.14884005491488245,510.0
