,C/O ratio,CH4 in,CH4 out,CO out,H2 out,H2O out,CO2 out,Exit temp,Max temp,Dist to max temp,O2 conv,Max CH4 Conv,Dist to 50 CH4 Conv
0,0.6000000000000001,0.04220610931192466,0.04214293902610127,9.7914517956398e-07,9.397813595820147e-07,0.00012448945432926603,6.146669186626253e-05,707.8304722228637,707.8304722228637,20.01,0.003536512312442066,-8.195183553300067e-06,510.0
1,0.7000000000000002,0.04764223879568619,0.04755088408867414,1.2548346771258678e-06,1.7654541751052838e-06,0.00017966903070611861,8.911386359007133e-05,710.9911708737628,710.9911708737628,20.01,0.005283338555716326,-1.3216102488777803e-05,510.0
2,0.8,0.05273657570711542,0.05260460869277352,1.6653591960732393e-06,3.2924592426964597e-06,0.0002588520778631045,0.00012894998607911146,715.4333479545085,715.4333479545085,20.01,0.00787204281403848,-2.238219485653503e-05,510.0
3,0.9000000000000001,0.05752037248751414,0.057323497129824,2.4088857289804536e-06,6.480149531121658e-06,0.00038469233270955886,0.00019255787966345484,722.3918056282596,722.3918056282596,20.130000000000003,0.012092355500103071,-4.330588793538537e-05,510.0
4,1.0,0.06202118410625546,0.06168758890726514,4.572603108021643e-06,1.6209210633813915e-05,0.0006469004262499364,0.00032605195330144196,736.7895252684663,736.7895252684663,70.0,0.02103178613651513,-0.0001295326857143897,510.0
5,1.1,0.0662633991614029,0.018395793521409406,0.04409006820489469,0.08716068080093733,0.00851908715042671,0.0037270579814834654,1225.4859621015046,1277.4352334510545,19.73,0.9971012983786407,-0.4339479063649218,70.0
6,1.2,0.07026868199272561,0.0199237940286583,0.04768830080334506,0.09497350795905116,0.005661282342655227,0.0026037648542998146,1102.7924409946472,1257.4014716946842,18.400000000000002,0.9999999999998823,-0.3939419220231277,70.0
7,1.2999999999999996,0.07405634272972028,0.024533518385179878,0.046911836155344326,0.09403891277939515,0.004946957670693136,0.002553775314456872,1071.5904528242845,1240.5552042469446,17.330000000000002,1.0,-0.35609111612810856,70.0
8,1.3999999999999995,0.07764364861664726,0.02927638723913428,0.045749278419119535,0.09207302267291781,0.004597020450628125,0.0025566964366136313,1052.8628460813834,1225.8987242275457,16.46,1.0,-0.3355098235644796,70.0
9,1.6000000000000005,0.08427758988601222,0.03840661836145913,0.043196865960194605,0.08740337975110878,0.004265349306534533,0.002605616692040512,1028.9143400826752,1201.0690300690944,15.160000000000002,1.0,-0.28569976419547255,70.0
10,1.7999999999999998,0.09027684884714632,0.046846108262206955,0.04068010085922722,0.08265889847996553,0.004121533725715896,0.0026760652239303222,1012.9857621374995,1180.3475533253966,14.230000000000002,1.0,-0.2452983206251258,510.0
11,2.0,0.09572834938139431,0.05458823869677943,0.03830843668544488,0.07814024376479717,0.0040518589071511825,0.0027519210310289087,1001.002343320438,1162.420374346192,13.56,1.0,-0.2154670428312369,510.0
12,2.2,0.10070383531597825,0.061688278131270605,0.03610472237876911,0.07392004768569592,0.004016487664552213,0.0028266126703415492,991.3538197068456,1146.562687539247,13.06,1.0,-0.189120708693645,510.0
13,2.4,0.10526304553491962,0.06821066337872156,0.034066968510523606,0.07000611974730143,0.0039980740467118105,0.002897262889374952,983.242805216228,1132.3149070576073,12.67,1.0,-0.1664653110268574,510.0
14,2.6,0.10945612414928066,0.07421672422954416,0.03218507738405844,0.06638448687541314,0.003988103739401229,0.002962647567649513,976.2180431918639,1119.3823337680824,12.38,1.0,-0.1488400734560663,510.0
