,C/O ratio,CH4 in,CH4 out,CO out,H2 out,H2O out,CO2 out,Exit temp,Max temp,Dist to max temp,O2 conv,Max CH4 Conv,Dist to 50 CH4 Conv
0,0.6000000000000001,0.04220610931192466,0.04214293902610089,9.791451795650548e-07,9.397813595852468e-07,0.00012448945432962948,6.146669186644454e-05,707.830472222891,707.830472222891,20.01,0.0035365123124491684,-8.195183553300067e-06,510.0
1,0.7000000000000002,0.04764223879568619,0.04755088408867384,1.254834677127651e-06,1.7654541751117721e-06,0.00017966903070666324,8.911386359034482e-05,710.9911708737972,710.9911708737972,20.01,0.00528333855573223,-1.3216102488777803e-05,510.0
2,0.8,0.05273657570711542,0.052604608692772836,1.6653591960770673e-06,3.29245924271265e-06,0.00025885207786412173,0.00012894998607962334,715.4333479545688,715.4333479545688,20.01,0.007872042814067953,-2.2382194853759474e-05,510.0
3,0.9000000000000001,0.05752037248751414,0.05732349712427987,2.4088857311218634e-06,6.480149534205919e-06,0.00038469233825241936,0.00019255787966440446,722.3918058500719,722.3918058500719,70.0,0.01209235567357649,-4.3305887936773146e-05,510.0
4,1.0,0.06202118410625546,0.061687588907234456,4.572603108101478e-06,1.6209210634123167e-05,0.0006469004262817928,0.00032605195330496383,736.789525269524,736.789525269524,70.0,0.02103178613746644,-0.00012953268571508358,510.0
5,1.1,0.0662633991614029,0.018395793520784545,0.04409006820578889,0.08716068080236582,0.008519087150165614,0.0037270579812395833,1225.4859620879997,1277.435233452483,19.73,0.9971012983814905,-0.4339479063137648,70.0
6,1.1999999999999995,0.07026868199272561,0.019923794031318873,0.04768830080104439,0.0949735079546085,0.005661282343073262,0.0026037648543405178,1102.7924410025153,1257.401471699943,18.400000000000002,0.9999999999998823,-0.3939419220807025,70.0
7,1.3000000000000003,0.07405634272972031,0.02453351839059911,0.046911836149433964,0.09403891277148807,0.004946957671724492,0.002553775314662596,1071.5904528314684,1240.555204244009,17.330000000000002,1.0,-0.35609111609672256,70.0
8,1.3999999999999995,0.07764364861664726,0.029276387245596298,0.045749278411631907,0.09207302266362265,0.0045970204520625795,0.002556696436925986,1052.862846091556,1225.8987242249266,16.46,1.0,-0.3355098235602094,70.0
9,1.6000000000000005,0.08427758988601222,0.03840661836860995,0.043196865959770764,0.08740337973843133,0.004265349305670346,0.002605616691613179,1028.9143401043593,1201.0690300692409,15.160000000000002,1.0,-0.28569976419096504,70.0
10,1.7999999999999998,0.09027684884714632,0.04684610827384979,0.040680100844226845,0.08265889846613116,0.004121533728203857,0.0026760652247580802,1012.9857621336499,1180.3475533279604,14.230000000000002,1.0,-0.24529832060278534,510.0
11,2.0,0.09572834938139431,0.05458823872375925,0.03830843665464331,0.07814024373453016,0.004051858910901884,0.0027519210325524356,1001.0023432884983,1162.4203743449973,13.56,1.0,-0.21546704293127217,510.0
12,2.2,0.10070383531597825,0.06168827817373098,0.036104722326857866,0.07392004764171485,0.004016487672003706,0.0028266126732002716,991.3538196549208,1146.562687540751,13.06,1.0,-0.18912070869349928,510.0
13,2.4,0.10526304553491962,0.06821066340185675,0.03406696848611305,0.07000611972144206,0.003998074049883724,0.002897262890486542,983.2428051995587,1132.3149070585534,12.67,1.0,-0.1664653110233727,510.0
14,2.6,0.10945612414928066,0.07421672424742261,0.03218507735968871,0.06638448685883146,0.003988103743882902,0.002962647569113983,976.2180431699031,1119.3823337662752,12.38,1.0,-0.14884007345585953,510.0
