,C/O ratio,CH4 in,CH4 out,CO out,H2 out,H2O out,CO2 out,Exit temp,Max temp,Dist to max temp,O2 conv,Max CH4 Conv,Dist to 50 CH4 Conv
0,0.6000000000000001,0.04220610931192466,0.04214293906425944,9.79143629324632e-07,9.397804087716592e-07,0.00012448937888628843,6.146665519615117e-05,707.8304674926889,707.8304674926889,20.01,0.003536510175665481,-8.195177353398364e-06,510.0
1,0.7000000000000002,0.04764223879568619,0.047550884147360244,1.254832582456682e-06,1.7654522866636156e-06,0.0001796689151660033,8.911380695160088e-05,710.9911638052042,710.9911638052042,20.01,0.0052833351632275575,-1.3216090912621103e-05,510.0
2,0.8,0.05273657570711542,0.052604608788082756,1.6653561558242487e-06,3.2924552894888678e-06,0.0002588518912489661,0.00012894989384100726,715.4333368087443,715.4333368087443,20.01,0.00787203713844417,-2.2382170143664393e-05,510.0
3,0.9000000000000001,0.05752037248751414,0.0573234973015814,2.408880508022059e-06,6.480139719056874e-06,0.00038469199391373825,0.00019255770790435777,722.3917857812523,722.3917857812523,70.0,0.012092344827719606,-4.330581757708285e-05,510.0
4,1.0,0.06202118410625546,0.061687589416444366,4.572587248911584e-06,1.620916635321161e-05,0.0006468994547573629,0.0003260514618425363,736.789470153591,736.789470153591,70.0,0.021031754360384566,-0.00012953220930797538,510.0
5,1.1,0.0662633991614029,0.018395908357905895,0.04408992135004611,0.0871603942506593,0.008519143842764101,0.003727089908987004,1225.488379545683,1277.4350811004053,19.73,0.9971008632010165,-0.4339577720298422,70.0
6,1.2,0.07026868199272561,0.019923797017150063,0.04768829692732518,0.09497349986643391,0.005661284452116448,0.002603765736757468,1102.7925335281939,1257.401509872811,18.400000000000002,0.9999999999998823,-0.39393357977718785,70.0
7,1.3000000000000003,0.07405634272972031,0.024533519978594702,0.04691183419417215,0.09403890835469203,0.004946958904144275,0.0025537756763646773,1071.5905063940893,1240.5552267462604,17.330000000000002,1.0,-0.3560973828358127,70.0
8,1.3999999999999995,0.07764364861664726,0.029276388537118656,0.04574927679619215,0.09207301908714592,0.004597021435558273,0.0025566967528549947,1052.8628911186147,1225.8987309532972,16.46,1.0,-0.3355112173421243,70.0
9,1.6000000000000005,0.08427758988601222,0.03840661931126267,0.04319686470786789,0.08740337718943299,0.004265349956769661,0.002605616992686432,1028.9143751414385,1201.0690708682457,15.160000000000002,1.0,-0.2857011791869646,70.0
10,1.8,0.09027684884714632,0.04684610911800126,0.04068009969160192,0.08265889619893094,0.00412153428743861,0.0026760655237171222,1012.9857938556717,1180.347569994235,14.230000000000002,1.0,-0.2452965131236537,510.0
11,2.0,0.09572834938139431,0.05458823953716198,0.03830843552632376,0.07814024155862999,0.004051859436756778,0.002751921335980051,1001.0023734086951,1162.4203971577972,13.56,1.0,-0.21546673259449228,510.0
12,2.2,0.10070383531597825,0.06168827898024402,0.036104721194877294,0.07392004548524449,0.004016488188085111,0.002826612983317449,991.3538488609211,1146.562714475316,13.06,1.0,-0.1891208049519144,510.0
13,2.4,0.10526304553491962,0.06821066421590527,0.03406696733515986,0.0700061175450947,0.003998074568150241,0.0028972632081922084,983.2428338459624,1132.314926432494,12.67,1.0,-0.1664655368555118,510.0
14,2.6,0.10945612414928066,0.07421672507491345,0.03218507613955712,0.06638448468511335,0.0039881042277560615,0.002962647938640988,976.2180717547683,1119.3823611318435,12.38,1.0,-0.14884005495152258,510.0
