,C/O ratio,CH4 in,CH4 out,CO out,H2 out,H2O out,CO2 out,Exit temp,Max temp,Dist to max temp,O2 conv,Max CH4 Conv,Dist to 50 CH4 Conv
0,0.6000000000000001,0.04220610931192466,0.04214293906325709,9.791436338697227e-07,9.397804240880791e-07,0.0001244893808186804,6.146665611897931e-05,707.83046761164,707.83046761164,20.01,0.003536510228879817,-8.19517741515452e-06,510.0
1,0.7000000000000002,0.04764223879568619,0.047550884147290154,1.2548325828566365e-06,1.7654522881413459e-06,0.00017966891530201096,8.911380701728801e-05,710.9911638133577,710.9911638133577,20.01,0.005283335167117845,-1.3216090920253887e-05,510.0
2,0.8,0.05273657570711542,0.05260460878808351,1.665356155824805e-06,3.2924552894678995e-06,0.0002588518912484231,0.00012894989384107134,715.4333368087307,715.4333368087307,20.01,0.00787203713842796,-2.2382170141582725e-05,510.0
3,0.9000000000000001,0.05752037248751414,0.057323497307137934,2.4088805058870504e-06,6.480139715857528e-06,0.0003846919883596937,0.00019255770790451777,722.3917855589739,722.3917855589739,20.01,0.012092344653900498,-4.33058175736134e-05,510.0
4,1.0,0.06202118410625546,0.06168758941676307,4.572587248779222e-06,1.6209166353003858e-05,0.0006468994544584983,0.0003260514618428163,736.7894701420706,736.7894701420706,70.0,0.021031754351071165,-0.0001295322093072815,510.0
5,1.1,0.0662633991614029,0.018395908365992572,0.04408992135069078,0.08716039423601592,0.008519143841017594,0.0037270899087457855,1225.4883795736139,1277.4350810892129,19.73,0.9971008631951581,-0.43395777210950903,70.0
6,1.1999999999999995,0.07026868199272561,0.019923797015150846,0.0476882969096561,0.09497349987571187,0.005661284457377476,0.00260376573849263,1102.7925334822019,1257.40150986308,18.400000000000002,0.9999999999998823,-0.393933579827959,70.0
7,1.3000000000000003,0.07405634272972031,0.024533519888699326,0.04691183420905181,0.09403892665696777,0.0049469589060249265,0.0025537756779284897,1071.5902120049338,1240.5552267374821,17.330000000000002,1.0,-0.3560973828156136,20.0
8,1.3999999999999995,0.07764364861664726,0.029276388486315558,0.04574927683127241,0.09207303495867272,0.0045970214267438865,0.0025566967512650183,1052.8626391447103,1225.8987311351268,16.46,1.0,-0.3355112173476074,20.0
9,1.6000000000000005,0.08427758988601222,0.03840661914892589,0.04319686490467164,0.08740338962555887,0.004265349903669199,0.0026056169792919564,1028.9141858655726,1201.0690709176622,15.160000000000002,1.0,-0.2857011788893721,20.0
10,1.8,0.09027684884714632,0.04684610896192032,0.04068009993314604,0.08265890603376166,0.004121534231090205,0.002676065505771107,1012.9856482744108,1180.3475700041877,14.230000000000002,1.0,-0.24529651315955137,510.0
11,2.0,0.09572834938139431,0.05458823948790762,0.0383084355476746,0.07814024935998051,0.0040518594348414125,0.0027519213363063097,1001.0022595257225,1162.4203971532388,13.56,1.0,-0.21546673260802313,510.0
12,2.2,0.10070383531597825,0.061688278976051336,0.03610472116513443,0.0739200517358307,0.004016488191584651,0.0028266129857141384,991.3537589661845,1146.5627144120547,13.06,1.0,-0.1891208045145809,510.0
13,2.4,0.10526304553491962,0.06821066413411826,0.03406696737439723,0.07000612268713474,0.003998074560600207,0.0028972632087135614,983.2427626862052,1132.3149263770651,12.67,1.0,-0.16646553696256783,510.0
14,2.6,0.10945612414928066,0.07421672471143972,0.03218507658127757,0.06638448908327364,0.0039881041446867705,0.002962647912677143,976.2180158737245,1119.38236114635,12.38,1.0,-0.14884005494134184,510.0
