,C/O ratio,CH4 in,CH4 out,CO out,H2 out,H2O out,CO2 out,Exit temp,Max temp,Dist to max temp,O2 conv,Max CH4 Conv,Dist to 50 CH4 Conv
0,0.6000000000000001,0.04220610931192466,0.04214293902610115,9.791451795644928e-07,9.397813595836968e-07,0.00012448945432945248,6.146669186635597e-05,707.8304722228771,707.8304722228771,20.01,0.003536512312447195,-8.195183554687846e-06,510.0
1,0.7000000000000002,0.04764223879568619,0.04755088408867435,1.254834677125877e-06,1.7654541751057103e-06,0.00017966903070615447,8.911386359008953e-05,710.9911708737696,710.9911708737696,20.01,0.005283338555721423,-1.3216102488777803e-05,510.0
2,0.8,0.05273657570711542,0.052604608692773565,1.6653591960730976e-06,3.292459242696128e-06,0.0002588520778631033,0.00012894998607911073,715.4333479545071,715.4333479545071,20.01,0.007872042814039111,-2.238219485653503e-05,510.0
3,0.8999999999999997,0.057520372487514126,0.057323497124279414,2.408885731114378e-06,6.480149534171156e-06,0.00038469233825084493,0.00019255787966359857,722.3918058500101,722.3918058500101,70.0,0.012092355673516558,-4.3305887936773146e-05,510.0
4,1.0,0.06202118410625546,0.061687588907242026,4.572603108038477e-06,1.6209210633852557e-05,0.0006469004262756925,0.0003260519533016554,736.7895252694333,736.7895252694333,70.0,0.021031786137339793,-0.00012953268571230803,510.0
5,1.1,0.0662633991614029,0.018395793521917177,0.04409006820442189,0.08716068079957451,0.008519087150697777,0.0037270579815321236,1225.4859621108355,1277.4352334505845,19.73,0.9971012983774167,-0.43394790640588904,70.0
6,1.2,0.07026868199272561,0.01992379403069439,0.04768830080130835,0.09497350795555402,0.0056612823431027685,0.0026037648543584054,1102.792441001946,1257.4014717005464,18.400000000000002,0.9999999999998823,-0.3939419220360167,70.0
7,1.3,0.0740563427297203,0.024533518389609713,0.04691183615007099,0.09403891277296651,0.004946957671705026,0.0025537753146731507,1071.5904528308788,1240.5552042434435,17.330000000000002,1.0,-0.35609111612481814,70.0
8,1.3999999999999995,0.07764364861664726,0.029276387244476353,0.04574927841309023,0.09207302266502797,0.00459702045182932,0.0025566964368562753,1052.862846092096,1225.8987242249889,16.46,1.0,-0.3355098235655621,70.0
9,1.6000000000000005,0.08427758988601222,0.03840661836481345,0.04319686596450668,0.08740337974292729,0.004265349304986943,0.002605616691397603,1028.9143401085119,1201.0690300704025,15.160000000000002,1.0,-0.2856997641997247,70.0
10,1.7999999999999998,0.09027684884714632,0.04684610826854139,0.04068010085044696,0.08265889847239967,0.004121533727334405,0.002676065224484468,1012.9857621383993,1180.3475533279911,14.230000000000002,1.0,-0.2452983205961337,510.0
11,2.0,0.09572834938139431,0.05458823871952001,0.03830843665980245,0.07814024373914791,0.004051858910166639,0.0027519210322947563,1001.0023432937093,1162.4203743450312,13.56,1.0,-0.21546704293134433,510.0
12,2.2,0.10070383531597825,0.06168827816629625,0.036104722335906295,0.07392004764936959,0.00401648767070701,0.0028266126727326288,991.3538196650665,1146.5626875397252,13.06,1.0,-0.1891207086959723,510.0
13,2.4,0.10526304553491962,0.06821066339481698,0.03406696849385107,0.07000611972857884,0.003998074048931654,0.0028972628901349673,983.2428052098915,1132.3149070582897,12.67,1.0,-0.1664653110250866,510.0
14,2.6000000000000005,0.10945612414928066,0.07421672424228894,0.032185077365221845,0.06638448686397974,0.003988103743208189,0.0029626475688590546,976.2180431770705,1119.382333766108,12.38,1.0,-0.14884007345555839,510.0
