,C/O ratio,CH4 in,CH4 out,CO out,H2 out,H2O out,CO2 out,Exit temp,Max temp,Dist to max temp,O2 conv,Max CH4 Conv,Dist to 50 CH4 Conv
0,0.6000000000000001,0.04220610931192466,0.0421429390261011,9.791451795649157e-07,9.397813595846299e-07,0.00012448945432954697,6.146669186640278e-05,707.8304722228846,707.8304722228846,20.01,0.0035365123124499573,-8.195183551912288e-06,510.0
1,0.7000000000000002,0.04764223879568619,0.04755088408867437,1.2548346771261219e-06,1.7654541751067822e-06,0.00017966903070625387,8.911386359013954e-05,710.9911708737679,710.9911708737679,20.01,0.0052833385557244815,-1.3216102486002246e-05,510.0
2,0.8,0.05273657570711542,0.05260460869277333,1.6653591960742543e-06,3.292459242699855e-06,0.0002588520778633035,0.0001289499860792114,715.4333479545238,715.4333479545238,20.01,0.007872042814043743,-2.2382194855147253e-05,510.0
3,0.9000000000000001,0.05752037248751414,0.057323497124279234,2.4088857311106983e-06,6.480149534157539e-06,0.0003846923382503777,0.0001925578796633621,722.3918058499927,722.3918058499927,70.0,0.012092355673476171,-4.3305887938160925e-05,510.0
4,1.0,0.06202118410625546,0.061687588907237155,4.572603108055326e-06,1.6209210633925615e-05,0.0006469004262770089,0.00032605195330251207,736.7895252694311,736.7895252694311,70.0,0.021031786137278147,-0.0001295326857136958,510.0
5,1.1,0.0662633991614029,0.018395793521432877,0.044090068204961815,0.08716068080072668,0.008519087150501242,0.003727057981408977,1225.4859621016062,1277.4352334518826,19.73,0.9971012983790739,-0.4339479063731381,70.0
6,1.2,0.07026868199272561,0.019923794030545082,0.047688300801153514,0.09497350795582801,0.005661282343187627,0.002603764854385357,1102.792441001939,1257.4014717011762,18.400000000000002,0.9999999999998823,-0.39394192204691075,70.0
7,1.3000000000000003,0.07405634272972031,0.024533518390208786,0.04691183614956217,0.09403891277207967,0.004946957671758973,0.0025537753146806165,1071.5904528312853,1240.5552042436766,17.330000000000002,1.0,-0.3560911161175781,70.0
8,1.3999999999999995,0.07764364861664726,0.029276387244946536,0.0457492784124144,0.09207302266449026,0.00459702045193293,0.00255669643689513,1052.8628460914886,1225.8987242246988,16.46,1.0,-0.33550982356652936,70.0
9,1.6000000000000005,0.08427758988601222,0.03840661836727833,0.04319686596120339,0.0874033797401521,0.004265349305488945,0.002605616691561778,1028.9143401051222,1201.0690300686742,15.160000000000002,1.0,-0.28569976419656473,70.0
10,1.8,0.09027684884714633,0.04684610827369177,0.040680100843966414,0.08265889846655347,0.004121533728289457,0.0026760652248044342,1012.9857621326852,1180.3475533278363,14.230000000000002,1.0,-0.24529832059943524,510.0
11,2.0,0.09572834938139431,0.054588238720519155,0.03830843665824898,0.078140243738047,0.004051858910519212,0.002751921032379189,1001.0023432935127,1162.4203743445603,13.56,1.0,-0.21546704293154972,510.0
12,2.2,0.10070383531597825,0.061688278170468416,0.036104722331522954,0.07392004764484839,0.004016487671171744,0.0028266126729241618,991.3538196596536,1146.5626875407506,13.06,1.0,-0.18912070869372827,510.0
13,2.4,0.10526304553491962,0.06821066339869435,0.03406696849007724,0.07000611972450381,0.0039980740492615695,0.0028972628902743033,983.2428052040401,1132.3149070583966,12.67,1.0,-0.16646531102354617,510.0
14,2.6,0.10945612414928066,0.074216724248468,0.03218507735788214,0.06638448685818656,0.0039881037442405,0.002962647569250199,976.2180431672774,1119.3823337664994,12.38,1.0,-0.14884007345520867,510.0
