,C/O ratio,CH4 in,CH4 out,CO out,H2 out,H2O out,CO2 out,Exit temp,Max temp,Dist to max temp,O2 conv,Max CH4 Conv,Dist to 50 CH4 Conv
0,0.6000000000000001,0.04220610931192466,0.04214293902610126,9.79145179564375e-07,9.397813595827495e-07,0.00012448945432933629,6.146669186630162e-05,707.8304722228734,707.8304722228734,20.01,0.003536512312444039,-8.195183553300067e-06,510.0
1,0.7000000000000002,0.04764223879568619,0.04755088408867451,1.2548346771262794e-06,1.7654541751059727e-06,0.00017966903070615816,8.911386359009247e-05,710.9911708737718,710.9911708737718,20.01,0.0052833385557232585,-1.3216102488083914e-05,510.0
2,0.8,0.05273657570711542,0.052604608692773634,1.6653591960732124e-06,3.29245924269639e-06,0.00025885207786309873,0.0001289499860791098,715.4333479545038,715.4333479545038,20.01,0.007872042814039321,-2.2382194855841142e-05,510.0
3,0.9000000000000001,0.05752037248751414,0.057323497129835914,2.4088857289738213e-06,6.480149531011686e-06,0.00038469233269768484,0.00019255787966329302,722.3918056277718,722.3918056277718,20.03,0.012092355499730024,-4.330588793538537e-05,510.0
4,1.0,0.06202118410625546,0.06168758892000322,4.572603102295901e-06,1.620921062432459e-05,0.000646900413510703,0.00032605195330141567,736.7895247732339,736.7895247732339,20.07,0.021031785725725016,-0.0001295326857136958,510.0
5,1.1,0.0662633991614029,0.018395793520541593,0.044090068205004586,0.08716068080260603,0.008519087150504355,0.0037270579814742276,1225.4859620960353,1277.4352334521711,19.73,0.9971012983792116,-0.4339479063629581,70.0
6,1.2,0.07026868199272561,0.019923794029908272,0.04768830080163788,0.0949735079568221,0.0056612823430822025,0.002603764854380707,1102.7924409993843,1257.4014716998493,18.400000000000002,0.9999999999998823,-0.3939419220278607,70.0
7,1.3000000000000003,0.07405634272972031,0.02453351838420399,0.0469118361486577,0.0940389127818112,0.004946957673286415,0.002553775315203416,1071.590452827601,1240.5552042399213,17.330000000000002,1.0,-0.3560911161182387,70.0
8,1.3999999999999995,0.07764364861664726,0.029105162256367275,0.04583989267474631,0.09233758078553353,0.004615407258106973,0.0025616111774641663,1053.2003004337475,1226.4964321894695,16.46,1.0,-0.33758816308722545,70.0
9,1.6000000000000005,0.08427758988601222,0.03840661835716084,0.043196865970993224,0.08740337975409959,0.004265349304119265,0.0026056166914122285,1028.9143401049107,1201.0690300697931,15.160000000000002,1.0,-0.28569976416523146,70.0
10,1.7999999999999998,0.09027684884714632,0.046846108262029104,0.04068010085545045,0.08265889848177704,0.0041215337268446315,0.002676065224402035,1012.9857621317864,1180.3475533263324,14.230000000000002,1.0,-0.24529832059831252,510.0
11,2.0,0.09572834938139428,0.05458823869613769,0.03830843668975136,0.07814024376436052,0.004051858905655018,0.002751921030562565,1001.0023433176393,1162.4203743535313,13.56,1.0,-0.21546704293442936,510.0
12,2.2,0.10070383531597825,0.06168827815628065,0.03610472234326185,0.07392004766281324,0.0040164876702927415,0.002826612672669392,991.3538196650946,1146.5626875395158,13.06,1.0,-0.18912070870698988,510.0
13,2.4,0.10526304553491962,0.06821066337915453,0.034066968510526444,0.07000611974564752,0.003998074046932656,0.0028972628893534163,983.2428052263683,1132.3149070560503,12.67,1.0,-0.1664653110239292,510.0
14,2.6,0.10945612414928066,0.07421672423255452,0.032185077376744996,0.06638448687340581,0.003988103741625591,0.0029626475681705975,976.218043189802,1119.382333763085,12.38,1.0,-0.14884007344747735,510.0
