,C/O ratio,CH4 in,CH4 out,CO out,H2 out,H2O out,CO2 out,Exit temp,Max temp,Dist to max temp,O2 conv,Max CH4 Conv,Dist to 50 CH4 Conv
0,0.6000000000000001,0.04220610931192466,0.04214293902610091,9.791451795641497e-07,9.397813595831512e-07,0.00012448945432941709,6.146669186633827e-05,707.8304722228689,707.8304722228689,20.01,0.0035365123124424607,-8.195183552606178e-06,510.0
1,0.7000000000000002,0.04764223879568619,0.047550884088674125,1.2548346771264656e-06,1.7654541751072985e-06,0.00017966903070627813,8.911386359015175e-05,710.9911708737741,710.9911708737741,20.01,0.005283338555722646,-1.3216102488083914e-05,510.0
2,0.8,0.05273657570711542,0.05260460869277319,1.665359196073181e-06,3.2924592426966228e-06,0.0002588520778631443,0.0001289499860791315,715.433347954509,715.433347954509,20.01,0.007872042814035533,-2.2382194855147253e-05,510.0
3,0.9000000000000001,0.05752037248751414,0.05732349712428148,2.4088857311125736e-06,6.480149534165178e-06,0.0003846923382506846,0.00019255787966350357,722.3918058500278,722.3918058500278,70.0,0.012092355673505051,-4.330588793607926e-05,510.0
4,1.0,0.06202118410625546,0.0616875889072332,4.572603108042087e-06,1.620921063387131e-05,0.0006469004262757591,0.00032605195330187304,736.7895252693862,736.7895252693862,70.0,0.021031786137196366,-0.00012953268571230803,510.0
5,1.1,0.0662633991614029,0.018395793521544124,0.0440900682049706,0.08716068080057894,0.008519087150447142,0.003727057981425693,1225.485962101887,1277.4352334513578,19.73,0.9971012983789276,-0.4339479063590265,70.0
6,1.2,0.07026868199272561,0.01992379403088572,0.04768830080120002,0.09497350795526002,0.0056612823431060255,0.0026037648543575436,1102.7924410022713,1257.4014717000232,18.400000000000002,0.9999999999998823,-0.3939419220382642,70.0
7,1.3000000000000003,0.07405634272972031,0.024533518390605923,0.04691183614922056,0.09403891277146012,0.004946957671813795,0.002553775314682073,1071.5904528319102,1240.5552042441939,17.330000000000002,1.0,-0.35609111613407046,70.0
8,1.3999999999999995,0.07764364861664726,0.02927638724500553,0.04574927841188442,0.09207302266449645,0.004597020452102102,0.0025566964369459644,1052.8628460915106,1225.8987242248106,16.46,1.0,-0.3355098235686596,70.0
9,1.6000000000000005,0.08427758988601222,0.03840661836751497,0.043196865961093386,0.08740337973981198,0.004265349305477019,0.002605616691551328,1028.9143401049614,1201.0690300692709,15.160000000000002,1.0,-0.28569976420015214,70.0
10,1.7999999999999998,0.09027684884714632,0.046846108273581794,0.04068010084443939,0.08265889846654964,0.004121533728180836,0.0026760652247518695,1012.9857621330042,1180.347553327694,14.230000000000002,1.0,-0.2452983205982459,510.0
11,2.0,0.09572834938139431,0.054588238718827044,0.03830843666115188,0.07814024373964966,0.004051858909896413,0.002751921032195139,1001.0023432958003,1162.4203743488592,13.56,1.0,-0.21546704293072538,510.0
12,2.2,0.10070383531597825,0.061688278173636764,0.0361047223271831,0.07392004764183562,0.004016487671913654,0.002826612673159128,991.3538196544715,1146.5626875407645,13.06,1.0,-0.1891207086910901,510.0
13,2.4,0.10526304553491962,0.06821066339811604,0.03406696849067966,0.07000611972510576,0.0039980740492150755,0.0028972628902451565,983.2428052053857,1132.314907058651,12.67,1.0,-0.16646531101977002,510.0
14,2.6,0.10945612414928066,0.07421672424644421,0.03218507736096807,0.06638448685986703,0.0039881037436539256,0.0029626475690304613,976.2180431705833,1119.3823337652414,12.38,1.0,-0.14884007345398326,510.0
