,C/O ratio,CH4 in,CH4 out,CO out,H2 out,H2O out,CO2 out,Exit temp,Max temp,Dist to max temp,O2 conv,Max CH4 Conv,Dist to 50 CH4 Conv
0,0.6000000000000001,0.04220610931192466,0.04214293906425937,9.791436293247989e-07,9.397804087712546e-07,0.00012448937888620885,6.14666551961116e-05,707.8304674926941,707.8304674926941,20.01,0.0035365101756615353,-8.195177354092253e-06,510.0
1,0.7000000000000002,0.04764223879568619,0.04755088414736062,1.2548325824555846e-06,1.765452286660018e-06,0.0001796689151657334,8.91138069514651e-05,710.9911638051826,710.9911638051826,20.01,0.005283335163222868,-1.3216090911927214e-05,510.0
2,0.8,0.05273657570711542,0.052604608788082825,1.6653561558226518e-06,3.2924552894832007e-06,0.00025885189124865945,0.0001289498938408528,715.4333368087225,715.4333368087225,20.01,0.00787203713843259,-2.2382170143664393e-05,510.0
3,0.9000000000000001,0.05752037248751414,0.05732349730158516,2.4088805080271728e-06,6.480139719076238e-06,0.00038469199391437376,0.0001925577079046973,722.391785781303,722.391785781303,70.0,0.012092344827738714,-4.330581757638896e-05,510.0
4,1.0,0.06202118410625546,0.06168758941645534,4.572587248879583e-06,1.6209166353083208e-05,0.0006468994547545124,0.00032605146184110193,736.7894701533955,736.7894701533955,70.0,0.02103175436043771,-0.0001295322093072815,510.0
5,1.1,0.0662633991614029,0.018395908357455568,0.04408992134976985,0.08716039425151645,0.00851914384283286,0.0037270899091435363,1225.4883795474113,1277.435081097953,19.73,0.9971008632001035,-0.4339577719869231,70.0
6,1.2,0.07026868199272561,0.019923797015793124,0.04768829692767726,0.09497349986883083,0.005661284452125047,0.002603765736806457,1102.792533522093,1257.4015098823459,18.400000000000002,0.9999999999998823,-0.39393357978741644,70.0
7,1.3000000000000003,0.07405634272972031,0.02453351997683443,0.04691183420126845,0.09403890835705155,0.0049469589016451114,0.0025537756757313687,1071.5905063775892,1240.5552267485339,17.330000000000002,1.0,-0.3560973828371755,70.0
8,1.3999999999999995,0.07764364861664726,0.029276388529942327,0.04574927680772294,0.09207301909655663,0.004597021433007874,0.002556696752200853,1052.862891113412,1225.8987309532777,16.46,1.0,-0.3355112172867769,70.0
9,1.6000000000000003,0.08427758988601221,0.03835836392270824,0.043204372945170315,0.08747475218477023,0.004273898157909136,0.002608912619343951,1028.948119754884,1201.19324408419,15.150000000000002,1.0,-0.28583318106859545,70.0
10,1.7999999999999996,0.09027684884714632,0.04684610912128842,0.04068009968189901,0.08265889619773507,0.004121534289613808,0.0026760655245166996,1012.9857938372311,1180.3475699924688,14.230000000000002,1.0,-0.245296513120756,510.0
11,2.0,0.09572834938139431,0.05458823954212367,0.03830843551651985,0.07814024155614743,0.004051859438330302,0.0027519213367759726,1001.0023733858408,1162.4203971587654,13.56,1.0,-0.2154667326056764,510.0
12,2.2,0.10070383531597825,0.06168827896575803,0.03610472121125922,0.07392004550110393,0.004016488185942384,0.002826612982448791,991.3538488731949,1146.562714479396,13.06,1.0,-0.1891208048704393,510.0
13,2.4,0.10526304553491962,0.06821066415984703,0.03406696740429497,0.07000611760305325,0.003998074556888289,0.002897263204175724,983.2428338869211,1132.3149264287886,12.67,1.0,-0.16646553689389915,510.0
14,2.6,0.10945612414928066,0.07421672509179338,0.03218507611136161,0.06638448467619718,0.003988104232334451,0.002962647940742303,976.2180716900731,1119.3823611365353,12.38,1.0,-0.1488400549512492,510.0
