,C/O ratio,CH4 in,CH4 out,CO out,H2 out,H2O out,CO2 out,Exit temp,Max temp,Dist to max temp,O2 conv,Max CH4 Conv,Dist to 50 CH4 Conv
0,0.6000000000000001,0.04220610931192466,0.04217182787511073,6.670014294838751e-07,6.187699895911405e-07,6.743424286712839e-05,3.3186292179111746e-05,704.2406695704833,704.2406695704833,20.01,0.001915628948659258,-4.030387393272328e-06,510.0
1,0.7000000000000002,0.04764223879568619,0.04759212435003399,8.312407402686063e-07,1.102366577524111e-06,9.84140396833622e-05,4.870441379651871e-05,706.0233125682041,706.0233125682041,20.01,0.002894265569272419,-6.28377037834027e-06,510.0
2,0.8,0.05273657570711542,0.05266482993878337,1.0426779536512427e-06,1.9031935419883905e-06,0.0001405986224585473,6.992290053445584e-05,708.392740683865,708.392740683865,20.01,0.0042759662244779275,-9.82414487468719e-06,510.0
3,0.9000000000000001,0.05752037248751414,0.0574181439205817,1.3389216934455154e-06,3.2648219083025016e-06,0.00019981205204353425,9.983009748535753e-05,711.6544394084975,711.6544394084975,20.01,0.006278455658289399,-1.585698115522116e-05,510.0
4,1.0,0.06202118410625546,0.061873098455530566,1.8131768058867835e-06,5.7598977939546e-06,0.0002884514103652541,0.00014480220298482364,716.4649753802389,716.4649753802389,20.01,0.009358257646567785,-2.7767917992749247e-05,510.0
5,1.1,0.0662633991614029,0.06603549890859371,2.795712144673918e-06,1.1277232400662454e-05,0.0004415963875164906,0.00022295214596303338,724.6954168532719,724.6954168532719,20.14,0.014790523444650623,-5.9856586452633476e-05,510.0
6,1.2,0.07026868199272561,0.06980771309678681,7.697571577349168e-06,3.6878195072916386e-05,0.0008796692087072351,0.0004493691943738836,748.1825533997894,748.1825533997894,70.0,0.030519936751625648,-0.000332528191297754,510.0
7,1.2999999999999996,0.07405634272972028,0.026459023005838835,0.044590925172496604,0.0885285313930767,0.006575991542346553,0.0029170731141542187,1123.992652607244,1240.9726275780129,19.19,0.9999996918087841,-0.36213652619905834,70.0
8,1.3999999999999995,0.07764364861664726,0.030022534346478325,0.044914896855070205,0.08990277702415142,0.005267708546653916,0.002638522797020752,1072.1407875205273,1226.1519450911276,17.96,0.9999999999999999,-0.33506200965763705,70.0
9,1.6000000000000005,0.08427758988601222,0.03867845072462694,0.04288910512951096,0.08661300012594769,0.004508185178257886,0.0026380744259238923,1035.7532537283505,1201.3306145237746,16.16,1.0,-0.28514912754738636,70.0
10,1.8,0.09027684884714632,0.04698374631087869,0.040526548870382144,0.08225571400091096,0.0042471989496830325,0.0026900065878270904,1016.3518314039407,1180.5916794819102,14.940000000000001,1.0,-0.24666843362669416,510.0
11,2.0,0.09572834938139431,0.05426383168402259,0.0384149144100462,0.07851359535867798,0.004167823973483465,0.002769626341271894,1003.4142006331102,1163.9336304367966,14.07,1.0,-0.21773877267716457,510.0
12,2.2,0.10070383531597825,0.06173612126878083,0.036058602149408585,0.07377304720417509,0.004067122768539485,0.002824354603873359,992.4474488905516,1146.8483505035936,13.430000000000001,1.0,-0.18886858930867167,510.0
13,2.4,0.10526304553491962,0.06824009846763657,0.03404363458889401,0.06991115705822966,0.0040339111603536065,0.0028910109044085817,983.8847696455576,1132.6288429816543,12.950000000000001,1.0,-0.16581557768162863,510.0
14,2.6,0.10945612414928066,0.07423441929847502,0.03217653128300238,0.0663225652340191,0.0040146910444628136,0.0029536267284986256,976.5773902131843,1119.7095213757614,12.59,1.0,-0.1482031902886441,510.0
