,C/O ratio,CH4 in,CH4 out,CO out,H2 out,H2O out,CO2 out,Exit temp,Max temp,Dist to max temp,O2 conv,Max CH4 Conv,Dist to 50 CH4 Conv
0,0.6000000000000001,0.04220610931192466,0.042142939064259435,9.791436293242466e-07,9.397804087702191e-07,0.00012448937888612333,6.146665519606853e-05,707.8304674926765,707.8304674926765,20.01,0.00353651017565976,-8.195177352704475e-06,510.0
1,0.7000000000000002,0.04764223879568619,0.04755088414736077,1.254832582455808e-06,1.765452286661112e-06,0.00017966891516580847,8.911380695150338e-05,710.9911638051867,710.9911638051867,20.01,0.005283335163227761,-1.3216090912621103e-05,510.0
2,0.8,0.05273657570711542,0.052604608788082804,1.6653561558244945e-06,3.2924552894884383e-06,0.0002588518912489126,0.00012894989384097942,715.4333368087501,715.4333368087501,20.01,0.007872037138442275,-2.2382170142276614e-05,510.0
3,0.9000000000000001,0.05752037248751414,0.0573234973071228,2.408880505895498e-06,6.480139716035842e-06,0.00038469198837451374,0.00019255770790469577,722.3917855595823,722.3917855595823,20.14,0.012092344654364744,-4.330581757638896e-05,510.0
4,1.0,0.06202118410625546,0.06168758941647723,4.572587248891449e-06,1.620916635315652e-05,0.0006468994547315751,0.0003260514618421328,736.7894701525797,736.7894701525797,70.0,0.021031754359704564,-0.00012953220930797538,510.0
5,1.1,0.0662633991614029,0.01796339452177084,0.04436521189854533,0.08768882172277177,0.00867975601731162,0.0037166316989357107,1229.3370458734885,1280.086820727378,19.740000000000002,0.9967589244462478,-0.43575290157204377,70.0
6,1.2,0.07026868199272561,0.019923797014769408,0.04768829692771467,0.09497349987019303,0.0056612844524510115,0.0026037657368968674,1102.792533526625,1257.401509869122,18.400000000000002,0.9999999999998823,-0.3939335797745004,70.0
7,1.2999999999999996,0.07405634272972028,0.024287401830479127,0.047090419566757157,0.09441893524334911,0.004966507608045326,0.0025563463095336927,1072.3274312619756,1241.5638939391022,17.34,1.0,-0.36782555741904227,70.0
8,1.3999999999999995,0.07764364861664726,0.029276388534323412,0.04574927680194675,0.09207301909108172,0.004597021433881868,0.002556696752468996,1052.8628911087558,1225.898730956594,16.46,1.0,-0.33551121735005685,70.0
9,1.6000000000000005,0.08427758988601222,0.03806201588531757,0.04337154138316995,0.08794313017669289,0.004299900055104389,0.0026163327467913205,1029.452605402735,1202.225364400888,15.150000000000002,1.0,-0.2885357770649785,70.0
10,1.8,0.09027684884714632,0.04684610912730933,0.04068009967304207,0.08265889619170598,0.00412153429079275,0.002676065525245322,1012.9857938298976,1180.3475699973783,14.230000000000002,1.0,-0.24529651312135692,510.0
11,2.0,0.09572834938139431,0.05458823951612678,0.03830843554923482,0.07814024158288728,0.004051859433881453,0.0027519213349665806,1001.0023734262694,1162.4203971616214,13.56,1.0,-0.21546673259332516,510.0
12,2.2,0.10070383531597825,0.06168827895545338,0.03610472122679998,0.07392004551067644,0.004016488183123377,0.0028266129814002745,991.3538488874909,1146.5627144574912,13.06,1.0,-0.1891208049538115,510.0
13,2.4,0.10526304553491962,0.06821066419074542,0.03406696736387947,0.0700061175712329,0.003998074564187751,0.0028972632067392097,983.2428338741315,1132.3149264363883,12.67,1.0,-0.1664655368591575,510.0
14,2.6,0.10945612414928066,0.07349484351870382,0.03262305924476571,0.06747445591925261,0.004032414999873209,0.0029742325357415378,977.3678699475955,1121.9704689601622,12.38,1.0,-0.15322684941573989,510.0
