,C/O ratio,CH4 in,CH4 out,CO out,H2 out,H2O out,CO2 out,Exit temp,Max temp,Dist to max temp,O2 conv,Max CH4 Conv,Dist to 50 CH4 Conv
0,0.6000000000000001,0.04220610931192466,0.04214293906425923,9.791436293248056e-07,9.397804087712895e-07,0.00012448937888621153,6.146665519611273e-05,707.8304674926927,707.8304674926927,20.01,0.0035365101756607465,-8.195177354092253e-06,510.0
1,0.7000000000000002,0.04764223879568619,0.04755088414736058,1.2548325824557303e-06,1.7654522866609601e-06,0.00017966891516580576,8.91138069515015e-05,710.9911638051866,710.9911638051866,20.01,0.005283335163225722,-1.3216090913314993e-05,510.0
2,0.8,0.05273657570711542,0.052604608788082714,1.6653561558246233e-06,3.2924552894898173e-06,0.00025885189124899886,0.0001289498938410233,715.4333368087496,715.4333368087496,20.01,0.007872037138444801,-2.238217014505217e-05,510.0
3,0.9000000000000001,0.05752037248751414,0.05732349730158458,2.408880508026945e-06,6.480139719075977e-06,0.0003846919939143668,0.0001925577079046935,722.3917857812712,722.3917857812712,70.0,0.012092344827728509,-4.33058175736134e-05,510.0
4,1.0,0.06202118410625546,0.06168758941645561,4.57258724890827e-06,1.6209166353199255e-05,0.0006468994547551778,0.00032605146184242487,736.7894701534586,736.7894701534586,70.0,0.021031754360418802,-0.00012953220931005704,510.0
5,1.1,0.0662633991614029,0.018366501717741273,0.04408860069159217,0.08717259826408681,0.008545456548349734,0.0037338990645606825,1226.312228012902,1277.749540936887,19.740000000000002,0.9969893218368513,-0.43342576129572485,70.0
6,1.1999999999999995,0.07026868199272561,0.019923797018579954,0.0476882969263955,0.0949734998643238,0.005661284452183769,0.0026037657367552537,1102.7925335307295,1257.4015098733455,18.400000000000002,0.9999999999998823,-0.3939335797855395,70.0
7,1.3000000000000003,0.07405634272972031,0.024533519973341803,0.04691183419465113,0.09403890836272012,0.004946958905065001,0.0025537756767188167,1071.5905063930127,1240.555226746536,17.330000000000002,1.0,-0.3560973829622574,70.0
8,1.3999999999999995,0.07764364861664726,0.029276388534674482,0.045749276803407034,0.09207301909063965,0.004597021433198812,0.002556696752195979,1052.8628911007452,1225.8987309400256,16.46,1.0,-0.3355112173479391,70.0
9,1.6000000000000005,0.08427758988601222,0.0380620158686384,0.04337154141200147,0.08794313019603886,0.004299900048916991,0.0026163327448618942,1029.4526054029018,1202.2253644031357,15.150000000000002,1.0,-0.2885357770621724,70.0
10,1.7999999999999998,0.09027684884714632,0.046640188478984865,0.04078090288663228,0.08297782240947237,0.004141796646327572,0.0026827861900473567,1013.274854867161,1181.0040480067998,14.230000000000002,1.0,-0.24668096090386116,510.0
11,2.0,0.09572834938139431,0.05432607448443491,0.03844871978503999,0.07855913999757597,0.004074747502166853,0.0027590700755449585,1001.3802842809855,1163.32475569567,13.56,1.0,-0.21818345892708063,510.0
12,2.2,0.10070383531597825,0.06168827897764779,0.03610472119148554,0.07392004549187348,0.004016488189559498,0.0028266129838429963,991.353848845237,1146.5627144758507,13.06,1.0,-0.18912080489776745,510.0
13,2.4,0.10526304553491962,0.06793647884195103,0.03426293177472914,0.07040727824865765,0.004006932632556203,0.0028980820826686802,983.7442206193266,1133.3357605567007,12.68,1.0,-0.1686121339020033,510.0
14,2.6000000000000005,0.10945612414928066,0.07395786996032558,0.032362730326905516,0.06677779344898513,0.003998928888911597,0.0029641981625829284,976.6793331262053,1120.3724144567523,12.38,1.0,-0.15050303960220113,510.0
