,C/O ratio,CH4 in,CH4 out,CO out,H2 out,H2O out,CO2 out,Exit temp,Max temp,Dist to max temp,O2 conv,Max CH4 Conv,Dist to 50 CH4 Conv
0,0.6000000000000001,0.04220610931192466,0.04217182787511055,6.670014294842646e-07,6.187699895916851e-07,6.743424286716882e-05,3.3186292179131655e-05,704.2406695704957,704.2406695704957,20.01,0.001915628948657877,-4.030387393272328e-06,510.0
1,0.7000000000000002,0.04764223879568619,0.04759212435003395,8.312407402690489e-07,1.1023665775250704e-06,9.841403968341985e-05,4.8704413796547395e-05,706.0233125682151,706.0233125682151,20.01,0.0028942655692738464,-6.2837703776463805e-06,510.0
2,0.8,0.05273657570711542,0.05266482993878329,1.0426779536516669e-06,1.9031935419895503e-06,0.00014059862245860614,6.992290053448525e-05,708.3927406838752,708.3927406838752,20.01,0.004275966224480033,-9.82414487538108e-06,510.0
3,0.9000000000000001,0.05752037248751414,0.05741814392058201,1.3389216934454544e-06,3.26482190830199e-06,0.00019981205204350945,9.983009748534536e-05,711.6544394084965,711.6544394084965,20.01,0.006278455658293742,-1.5856981153833383e-05,510.0
4,1.0,0.06202118410625546,0.061873098455530635,1.813176805886365e-06,5.759897793952603e-06,0.0002884514103651911,0.00014480220298479092,716.4649753802274,716.4649753802274,20.01,0.009358257646566667,-2.7767917992055358e-05,510.0
5,1.1,0.0662633991614029,0.066035498908594,2.7957121446727265e-06,1.1277232400653591e-05,0.00044159638751621036,0.00022295214596290388,724.6954168532615,724.6954168532615,20.14,0.014790523444644404,-5.985658644847014e-05,510.0
6,1.2,0.07026868199272561,0.06980771309678514,7.697571577392133e-06,3.687819507311955e-05,0.0008796692087098287,0.00044936919437522623,748.1825534000492,748.1825534000492,70.0,0.030519936751717363,-0.00033252819130191735,510.0
7,1.2999999999999996,0.07405634272972028,0.026401092692841518,0.044605611707118395,0.08861028247505694,0.006590447434286328,0.0029168579991903035,1124.0494379235447,1241.1418622234735,19.19,0.9999996948488449,-0.36307607243381557,70.0
8,1.3999999999999995,0.07764364861664726,0.030022534343222926,0.04491489686076329,0.08990277702802837,0.005267708545225753,0.0026385227966798314,1072.1407875158964,1226.1519450884105,17.96,0.9999999999999999,-0.33506200968057565,70.0
9,1.6000000000000005,0.08427758988601222,0.03867845072670478,0.04288910513055607,0.08661300012342303,0.00450818517711172,0.0026380744257020017,1035.7532537204604,1201.330614521182,16.16,1.0,-0.2851491275286583,70.0
10,1.8,0.09027684884714632,0.04698374630507034,0.04052654888228086,0.08225571400683104,0.0042471989468981265,0.0026900065867752018,1016.3518313996288,1180.5916794783504,14.940000000000001,1.0,-0.24666843361592639,510.0
11,2.0,0.09572834938139431,0.054667170715741904,0.03822455757206689,0.07790491442024428,0.0041280331417703695,0.0027557724065370914,1002.8733856454561,1162.6707744290907,14.06,1.0,-0.21426289084563455,510.0
12,2.2,0.10070383531597825,0.061736121269450696,0.036058602150673094,0.07377304720375419,0.004067122767398995,0.0028243546037022586,992.4474488771231,1146.848350500665,13.430000000000001,1.0,-0.1888685893076253,510.0
13,2.4,0.10526304553491962,0.06799169311991908,0.03422807212174528,0.07027283614179265,0.004040290933381001,0.0028909572793654843,984.3626112777591,1133.5453966988841,12.96,1.0,-0.16796072742819718,510.0
14,2.6,0.10945612414928066,0.07423441926931912,0.03217653131062446,0.0663225652647691,0.004014691042010424,0.002953626727513306,976.5773902528073,1119.7095213858363,12.59,1.0,-0.1482031903658365,510.0
