,C/O ratio,CH4 in,CH4 out,CO out,H2 out,H2O out,CO2 out,Exit temp,Max temp,Dist to max temp,O2 conv,Max CH4 Conv,Dist to 50 CH4 Conv
0,0.6000000000000001,0.04220610931192466,0.042171827875099856,6.670014295199349e-07,6.187699897608214e-07,6.743424288756209e-05,3.318629218856149e-05,704.2406695717438,704.2406695717438,20.01,0.0019156289491996242,-4.0303873946601065e-06,510.0
1,0.7000000000000002,0.04764223879568619,0.047592124350034015,8.312407402681203e-07,1.1023665775173203e-06,9.841403968313609e-05,4.8704413796486286e-05,706.0233125681868,706.0233125681868,20.01,0.002894265569262428,-6.28377037834027e-06,510.0
2,0.8,0.05273657570711542,0.052664829938783714,1.0426779536514104e-06,1.903193541973218e-06,0.00014059862245822483,6.99229005344872e-05,708.392740683855,708.392740683855,20.01,0.004275966224466559,-9.824144876768859e-06,510.0
3,0.8999999999999999,0.057520372487514126,0.057418143920581866,1.3389216934456361e-06,3.264821908295787e-06,0.00019981205204339176,9.983009748540356e-05,711.6544394084958,711.6544394084958,20.01,0.006278455658284623,-1.5856981153833383e-05,510.0
4,0.9999999999999999,0.06202118410625546,0.06187309845553023,1.8131768058853899e-06,5.759897793946279e-06,0.00028845141036497616,0.0001448022029846861,716.464975380211,716.464975380211,20.01,0.009358257646552232,-2.7767917992749247e-05,510.0
5,1.1000000000000005,0.06626339916140292,0.06603549890238311,2.795712146876934e-06,1.1277232404009901e-05,0.0004415963937253292,0.00022295214596290396,724.6954170907542,724.6954170907542,70.0,0.014790523650710341,-5.985658644985792e-05,510.0
6,1.2,0.07026868199272561,0.06980771309674971,7.697571577484496e-06,3.687819507354255e-05,0.0008796692087455721,0.00044936919437785206,748.1825534014184,748.1825534014184,70.0,0.0305199367529309,-0.0003325281913130196,510.0
7,1.3000000000000003,0.07405634272972031,0.026505717881198685,0.04456683683376268,0.08846340074718201,0.006565767527557408,0.0029167468327246427,1123.8004086660003,1240.7765989618308,19.19,0.9999996975410346,-0.3641740367446619,70.0
8,1.3999999999999995,0.07764364861664726,0.030022534296646333,0.044914896895550255,0.0899027771002283,0.005267708540864116,0.0026385227962082447,1072.1407874148094,1226.151945045018,17.96,0.9999999999999999,-0.335062009667729,70.0
9,1.6000000000000003,0.08427758988601221,0.03867845063353205,0.04288910524649407,0.08661300025906893,0.004508185151508626,0.0026380744190845637,1035.7532534787076,1201.3306145347485,16.16,1.0,-0.28514912751539806,70.0
10,1.7999999999999998,0.09027684884714632,0.04698374625594303,0.04052654890148603,0.0822557140851478,0.004247198948880848,0.0026900065878419314,1016.3518313019407,1180.5916794513857,14.940000000000001,1.0,-0.24666843318333215,510.0
11,2.0,0.09572834938139431,0.0546671707048504,0.038224557553488824,0.07790491447542872,0.004128033139740721,0.0027557724080080124,1002.8733852366694,1162.6707743854083,14.06,1.0,-0.2142628903487126,510.0
12,2.2,0.10070383531597825,0.061736121151386276,0.03605860228026253,0.07377304735392984,0.004067122745307537,0.002824354596311833,992.4474487600926,1146.8483504810454,13.430000000000001,1.0,-0.1888685892088876,510.0
13,2.4,0.10526304553491962,0.06824009799736123,0.03404363524014171,0.06991115752847694,0.004033911033006881,0.0028910108651662683,983.8847699517814,1132.6288429781987,12.950000000000001,1.0,-0.16581557769480004,510.0
14,2.6,0.10945612414928066,0.0742344188893724,0.03217653175557521,0.06632256567548694,0.004014690961678928,0.002953626704532797,976.5773903190625,1119.7095213360988,12.59,1.0,-0.1482031903266512,510.0
