,C/O ratio,CH4 in,CH4 out,CO out,H2 out,H2O out,CO2 out,Exit temp,Max temp,Dist to max temp,O2 conv,Max CH4 Conv,Dist to 50 CH4 Conv
0,0.6000000000000001,0.04220610931192466,0.042142939026101264,9.791451795647244e-07,9.397813595840581e-07,0.00012448945432948048,6.146669186636995e-05,707.8304722228881,707.8304722228881,20.01,0.0035365123124491684,-8.195183551912288e-06,510.0
1,0.7000000000000002,0.04764223879568619,0.04755088408867439,1.2548346771260757e-06,1.7654541751058374e-06,0.00017966903070616667,8.91138635900956e-05,710.9911708737664,710.9911708737664,20.01,0.005283338555722035,-1.3216102486696135e-05,510.0
2,0.8,0.05273657570711542,0.05260460869277333,1.6653591960744425e-06,3.292459242699794e-06,0.000258852077863286,0.00012894998607920267,715.4333479545264,715.4333479545264,20.01,0.007872042814042059,-2.2382194855841142e-05,510.0
3,0.8999999999999997,0.057520372487514126,0.057323497124285056,2.4088857311122504e-06,6.480149534163741e-06,0.000384692338250574,0.00019255787966346728,722.3918058499569,722.3918058499569,70.0,0.012092355673511346,-4.3305887936773146e-05,510.0
4,1.0,0.06202118410625546,0.061687588907241596,4.572603108043963e-06,1.620921063387563e-05,0.0006469004262760941,0.00032605195330192275,736.7895252694237,736.7895252694237,70.0,0.0210317861373474,-0.0001295326857136958,510.0
5,1.1,0.0662633991614029,0.018395793521657607,0.044090068204797335,0.0871606808002416,0.008519087150541336,0.0037270579814483993,1225.4859621046594,1277.4352334512726,19.73,0.9971012983784933,-0.4339479063815599,70.0
6,1.2,0.07026868199272561,0.019923794030915834,0.047688300801267944,0.09497350795521523,0.005661282343073333,0.0026037648543471175,1102.7924410022094,1257.4014717004384,18.400000000000002,0.9999999999998823,-0.39394192204547857,70.0
7,1.3,0.0740563427297203,0.02453351839034119,0.04691183614985303,0.09403891277182638,0.004946957671633005,0.002553775314638189,1071.5904528312167,1240.55520424371,17.330000000000002,1.0,-0.35609111612392996,70.0
8,1.3999999999999995,0.07764364861664726,0.029276387244202742,0.04574927841345283,0.09207302266548616,0.004597020451720154,0.0025566964368454966,1052.862846090958,1225.8987242251594,16.46,1.0,-0.33550982356658765,70.0
9,1.6000000000000005,0.08427758988601222,0.03840661836578941,0.043196865963888637,0.08740337974165718,0.004265349304965406,0.0026056166913761398,1028.9143401071772,1201.0690300696147,15.160000000000002,1.0,-0.2856997641984077,70.0
10,1.7999999999999998,0.09027684884714632,0.04684610827112102,0.04068010084832108,0.08265889846902512,0.004121533727481663,0.002676065224514481,1012.9857621372837,1180.3475533276353,14.230000000000002,1.0,-0.24529832059698997,510.0
11,2.0,0.09572834938139431,0.054588238719771705,0.03830843666019448,0.07814024373862315,0.004051858909977913,0.00275192103222995,1001.0023432939366,1162.4203743448622,13.56,1.0,-0.21546704293093355,510.0
12,2.2,0.10070383531597825,0.06168827816906304,0.03610472233284764,0.07392004764637776,0.004016487671101006,0.0028266126728725585,991.3538196622468,1146.5626875405303,13.06,1.0,-0.18912070869469277,510.0
13,2.4,0.10526304553491962,0.06821066339708896,0.03406696849157465,0.07000611972625774,0.003998074049158504,0.0028972628902169694,983.2428052063275,1132.3149070582672,12.67,1.0,-0.16646531102431916,510.0
14,2.6000000000000005,0.10945612414928066,0.07421672424266634,0.032185077364517777,0.06638448686371529,0.003988103743357053,0.002962647568907616,976.2180431762096,1119.3823337659032,12.38,1.0,-0.14884007345734168,510.0
