,C/O ratio,CH4 in,CH4 out,CO out,H2 out,H2O out,CO2 out,Exit temp,Max temp,Dist to max temp,O2 conv,Max CH4 Conv,Dist to 50 CH4 Conv
0,0.6000000000000001,0.04220610931192466,0.04214293902610094,9.791451795646175e-07,9.397813595841464e-07,0.00012448945432950203,6.146669186638054e-05,707.8304722228801,707.8304722228801,20.01,0.003536512312446209,-8.195183552606178e-06,510.0
1,0.7000000000000002,0.04764223879568619,0.04755088408867407,1.2548346771260554e-06,1.7654541751055051e-06,0.0001796690307061528,8.911386359008846e-05,710.9911708737675,710.9911708737675,20.01,0.005283338555716122,-1.3216102489471693e-05,510.0
2,0.8,0.05273657570711542,0.05260460869277337,1.6653591960732882e-06,3.292459242697218e-06,0.0002588520778631698,0.00012894998607914456,715.43334795451,715.43334795451,20.01,0.007872042814037637,-2.2382194855147253e-05,510.0
3,0.9000000000000001,0.05752037248751414,0.05732349712428229,2.408885731112706e-06,6.480149534163834e-06,0.00038469233825084797,0.00019255787966346362,722.3918058500192,722.3918058500192,70.0,0.012092355673488549,-4.3305887936773146e-05,510.0
4,1.0,0.06202118410625546,0.061687588907242706,4.572603108028442e-06,1.6209210633812486e-05,0.0006469004262744633,0.00032605195330121997,736.7895252692741,736.7895252692741,70.0,0.021031786137296945,-0.00012953268571161414,510.0
5,1.1,0.0662633991614029,0.018395793521738348,0.04409006820466653,0.0871606808000358,0.008519087150589742,0.003727057981480192,1225.485962106784,1277.435233451025,19.73,0.9971012983781055,-0.43394790638854597,70.0
6,1.2,0.07026868199272561,0.019923794031383887,0.04768830080084468,0.09497350795447991,0.00566128234314641,0.0026037648543601613,1102.7924410034873,1257.401471699828,18.400000000000002,0.9999999999998823,-0.3939419220453967,70.0
7,1.3000000000000003,0.07405634272972031,0.024533518389631977,0.046911836150106315,0.094038912772903,0.004946957671694127,0.0025537753146664373,1071.5904528310386,1240.5552042443435,17.330000000000002,1.0,-0.3560911161316002,70.0
8,1.3999999999999995,0.07764364861664726,0.029276387244205105,0.04574927841262786,0.0920730226655657,0.004597020452029759,0.002556696436932706,1052.8628460919801,1225.898724226824,16.46,1.0,-0.335509823563257,70.0
9,1.6000000000000005,0.08427758988601222,0.03840661836871678,0.04319686595922412,0.08740337973838512,0.004265349305826994,0.002605616691669127,1028.9143401043605,1201.0690300688013,15.160000000000002,1.0,-0.2856997641985978,70.0
10,1.7999999999999998,0.09027684884714632,0.0468461082720285,0.04068010084687056,0.08265889846812106,0.004121533727737333,0.0026760652246142864,1012.9857621359841,1180.34755332757,14.230000000000002,1.0,-0.24529832059766582,510.0
11,2.0,0.09572834938139431,0.05458823872181266,0.03830843665753073,0.07814024373643266,0.004051858910430376,0.002751921032355782,1001.002343291534,1162.4203743454557,13.56,1.0,-0.21546704292122604,510.0
12,2.2,0.10070383531597825,0.06168827817058854,0.03610472233063625,0.07392004764500307,0.004016487671467344,0.002826612673001067,991.3538196588026,1146.5626875407554,13.06,1.0,-0.18912070869409048,510.0
13,2.4,0.10526304553491962,0.06821066339687089,0.03406696849218192,0.07000611972635458,0.003998074048981285,0.002897262890166944,983.2428052066077,1132.314907057797,12.67,1.0,-0.1664653110223041,510.0
14,2.6000000000000005,0.10945612414928066,0.07421672424637525,0.032185077359283776,0.06638448686071466,0.0039881037442386445,0.0029626475692582704,976.2180431691835,1119.3823337665046,12.38,1.0,-0.14884007346160216,510.0
