,C/O ratio,CH4 in,CH4 out,CO out,H2 out,H2O out,CO2 out,Exit temp,Max temp,Dist to max temp,O2 conv,Max CH4 Conv,Dist to 50 CH4 Conv
0,0.6000000000000001,0.04220610931192466,0.04214293902610108,9.791451795642054e-07,9.397813595832275e-07,0.00012448945432942508,6.146669186634218e-05,707.8304722228718,707.8304722228718,20.01,0.003536512312445025,-8.195183552606178e-06,510.0
1,0.7000000000000002,0.04764223879568619,0.04755088408867431,1.254834677126322e-06,1.7654541751071469e-06,0.00017966903070627384,8.911386359014949e-05,710.9911708737718,710.9911708737718,20.01,0.005283338555725093,-1.3216102489471693e-05,510.0
2,0.8,0.05273657570711542,0.05260460869277344,1.6653591960737859e-06,3.2924592426984104e-06,0.0002588520778632303,0.00012894998607917461,715.4333479545182,715.4333479545182,20.01,0.007872042814041847,-2.2382194855841142e-05,510.0
3,0.9000000000000001,0.05752037248751414,0.05732349712428173,2.4088857311127625e-06,6.480149534165578e-06,0.000384692338250709,0.00019255787966351295,722.3918058499924,722.3918058499924,70.0,0.012092355673492892,-4.330588793538537e-05,510.0
4,1.0,0.06202118410625546,0.06168758890723285,4.572603108037806e-06,1.6209210633853685e-05,0.0006469004262754279,0.00032605195330169724,736.789525269387,736.789525269387,70.0,0.021031786137184393,-0.00012953268571300192,510.0
5,1.1,0.0662633991614029,0.018395793521558606,0.04409006820482871,0.08716068080048063,0.008519087150520412,0.003727057981459219,1225.4859621039768,1277.4352334510625,19.73,0.99710129837859,-0.43394790636992125,70.0
6,1.2,0.07026868199272561,0.019923794031104513,0.04768830080125951,0.0949735079549016,0.005661282343044995,0.002603764854337736,1102.7924410025714,1257.4014717014336,18.400000000000002,0.9999999999998823,-0.39394192202882383,70.0
7,1.3000000000000003,0.07405634272972031,0.024533518390351186,0.046911836149868165,0.09403891277179019,0.00494695767163713,0.0025537753146368976,1071.590452831541,1240.555204242922,17.330000000000002,1.0,-0.3560911161370292,70.0
8,1.3999999999999995,0.07764364861664726,0.029276387244619125,0.045749278412214975,0.09207302266508934,0.004597020452056782,0.002556696436939088,1052.8628460908492,1225.8987242254354,16.46,1.0,-0.33550982356620046,70.0
9,1.6000000000000005,0.08427758988601222,0.038406618366027705,0.04319686596330962,0.08740337974166235,0.004265349305022073,0.00260561669143613,1028.914340105115,1201.0690300689776,15.160000000000002,1.0,-0.2856997641919906,70.0
10,1.7999999999999998,0.09027684884714632,0.046846108270336854,0.04068010084873696,0.08265889847009093,0.004121533727530869,0.0026760652245298726,1012.9857621378694,1180.3475533274625,14.230000000000002,1.0,-0.24529832059820705,510.0
11,2.0,0.09572834938139431,0.05458823872148938,0.03830843665740266,0.07814024373708726,0.0040518589104911375,0.0027519210324144588,1001.0023432906162,1162.4203743446585,13.56,1.0,-0.21546704293312902,510.0
12,2.2,0.10070383531597825,0.061688278171263156,0.036104722329550185,0.07392004764440087,0.004016487671667668,0.002826612673080443,991.3538196578122,1146.562687540342,13.06,1.0,-0.18912070869264302,510.0
13,2.4,0.10526304553491962,0.06821066339809671,0.03406696849039111,0.0700061197253101,0.003998074049289903,0.00289726289028419,983.2428052044545,1132.3149070587153,12.67,1.0,-0.1664653110282091,510.0
14,2.6,0.10945612414928066,0.07421672424196948,0.03218507736542109,0.06638448686431989,0.003988103743233572,0.0029626475688503714,976.2180431777093,1119.382333766355,12.38,1.0,-0.1488400734577247,510.0
