,C/O ratio,CH4 in,CH4 out,CO out,H2 out,H2O out,CO2 out,Exit temp,Max temp,Dist to max temp,O2 conv,Max CH4 Conv,Dist to 50 CH4 Conv
0,0.6000000000000001,0.04220610931192466,0.04214293906425942,9.791436293253719e-07,9.397804087723396e-07,0.0001244893788863084,6.14666551961611e-05,707.8304674927082,707.8304674927082,20.01,0.003536510175666073,-8.195177353398364e-06,510.0
1,0.7000000000000002,0.04764223879568619,0.047550884147360396,1.2548325824563486e-06,1.7654522866621678e-06,0.0001796689151658723,8.911380695153474e-05,710.9911638051981,710.9911638051981,20.01,0.0052833351632253145,-1.3216090913314993e-05,510.0
2,0.8,0.05273657570711542,0.052604608788082895,1.6653561558245915e-06,3.29245528948977e-06,0.00025885189124898487,0.00012894989384101656,715.4333368087503,715.4333368087503,20.01,0.007872037138446695,-2.2382170142276614e-05,510.0
3,0.9000000000000001,0.05752037248751414,0.05732349730158512,2.408880508024856e-06,6.4801397190673e-06,0.00038469199391407506,0.00019255770790454273,722.3917857812872,722.3917857812872,70.0,0.012092344827726554,-4.330581757708285e-05,510.0
4,1.0,0.06202118410625546,0.061687589416454316,4.572587248881994e-06,1.6209166353087403e-05,0.0006468994547545707,0.00032605146184112686,736.7894701533047,736.7894701533047,70.0,0.02103175436042339,-0.00012953220930519982,510.0
5,1.1,0.0662633991614029,0.018395908356711822,0.04408992134963495,0.0871603942523234,0.00851914384326442,0.0037270899090434757,1225.4883795475678,1277.4350811019817,19.73,0.9971008632008346,-0.4339577720413393,70.0
6,1.2,0.07026868199272561,0.019923797015646953,0.047688296927437486,0.09497349986897234,0.005661284452318488,0.002603765736840516,1102.7925335245366,1257.4015098757277,18.400000000000002,0.9999999999998823,-0.39393357979727245,70.0
7,1.3000000000000003,0.07405634272972031,0.02453351996945388,0.046911834207037775,0.09403890836767172,0.00494695890125286,0.002553775675716251,1071.5905063769849,1240.5552267453602,17.330000000000002,1.0,-0.35609738284413384,70.0
8,1.3999999999999995,0.07764364861664726,0.029276388524109034,0.04574927681124765,0.09207301910415505,0.004597021433327937,0.0025566967522772555,1052.8628911215685,1225.89873095566,16.46,1.0,-0.335511217279931,70.0
9,1.6000000000000003,0.08427758988601221,0.038062015870374395,0.043371541393693584,0.08794313019976767,0.004299900054325524,0.002616332746747599,1029.452605385349,1202.2253643951847,15.150000000000002,1.0,-0.2885357770788424,70.0
10,1.7999999999999996,0.09027684884714632,0.04684610912442453,0.04068009968106014,0.08265889619236058,0.004121534289533703,0.0026760655243467163,1012.9857938460227,1180.347570037221,14.230000000000002,1.0,-0.24529651312311662,510.0
11,2.0,0.09572834938139431,0.05432607447377625,0.03844871980184509,0.07855914001000519,0.004074747499268508,0.0027590700745314324,1001.3802843005241,1163.32475571158,13.56,1.0,-0.2181834589695661,510.0
12,2.2,0.10070383531597825,0.06168827895145878,0.036104721231864007,0.07392004551412336,0.004016488182507066,0.0028266129811292486,991.3538488981375,1146.5627144734017,13.06,1.0,-0.18912080495487593,510.0
13,2.4,0.10526304553491962,0.06821066418419466,0.03406696737780966,0.07000611757661007,0.0039980745605263344,0.0028972632054641402,983.2428338697497,1132.3149264348008,12.67,1.0,-0.16646553685329551,510.0
14,2.6,0.10945612414928066,0.07421672508672915,0.03218507612191921,0.06638448467900397,0.003988104229854722,0.002962647939836527,976.2180716995846,1119.382361138942,12.38,1.0,-0.148840054983769,510.0
