,C/O ratio,CH4 in,CH4 out,CO out,H2 out,H2O out,CO2 out,Exit temp,Max temp,Dist to max temp,O2 conv,Max CH4 Conv,Dist to 50 CH4 Conv
0,0.6000000000000001,0.04220610931192466,0.042142939064259255,9.791436293258257e-07,9.397804087738196e-07,0.0001244893788864692,6.146665519624123e-05,707.8304674927177,707.8304674927177,20.01,0.0035365101756698212,-8.195177352010585e-06,510.0
1,0.7000000000000002,0.04764223879568619,0.047550884147360535,1.2548325824577102e-06,1.7654522866663985e-06,0.00017966891516618623,8.911380695169242e-05,710.9911638052246,710.9911638052246,20.01,0.005283335163238976,-1.3216090912621103e-05,510.0
2,0.8,0.05273657570711542,0.05260460878808292,1.6653561558250546e-06,3.2924552894913945e-06,0.00025885189124909,0.00012894989384106939,715.4333368087584,715.4333368087584,20.01,0.007872037138451327,-2.2382170142970503e-05,510.0
3,0.9000000000000001,0.05752037248751414,0.05732349730157984,2.4088805080285886e-06,6.48013971908097e-06,0.0003846919939145937,0.00019255770790479657,722.391785781336,722.391785781336,70.0,0.01209234482771157,-4.330581757708285e-05,510.0
4,1.0,0.06202118410625546,0.061687589416448634,4.5725872489155075e-06,1.6209166353231886e-05,0.0006468994547578683,0.0003260514618427995,736.789470153551,736.789470153551,70.0,0.021031754360442856,-0.0001295322093065876,510.0
5,1.1,0.0662633991614029,0.0183959083578025,0.044089921350279546,0.08716039425101367,0.008519143842640901,0.003727089908946199,1225.4883795420199,1277.4350811005077,19.73,0.9971008632016779,-0.43395777200383523,70.0
6,1.2,0.07026868199272561,0.019923797017861736,0.04768829692718087,0.09497349986529449,0.005661284452030861,0.0026037657367224774,1102.7925335290342,1257.4015098740445,18.400000000000002,0.9999999999998823,-0.3939335798104522,70.0
7,1.3000000000000003,0.07405634272972031,0.024533519978493852,0.046911834193958224,0.09403890835485693,0.004946958904239884,0.0025537756763956317,1071.5905063942819,1240.5552267446778,17.330000000000002,1.0,-0.3560973828327624,70.0
8,1.3999999999999995,0.07764364861664726,0.029276388535608554,0.0457492767985391,0.09207301908905761,0.004597021435072762,0.002556696752734559,1052.8628911186906,1225.8987309536558,16.46,1.0,-0.3355112173374822,70.0
9,1.6000000000000005,0.08427758988601222,0.03840661931135617,0.043196864708503584,0.08740337718916817,0.004265349956519575,0.0026056169926197163,1028.9143751414465,1201.069070868419,15.160000000000002,1.0,-0.285701179181283,70.0
10,1.7999999999999998,0.09027684884714632,0.046846109121756775,0.04068009968690075,0.08265889619472613,0.004121534288114211,0.002676065523943426,1012.9857938507514,1180.347569993447,14.230000000000002,1.0,-0.24529651312343304,510.0
11,2.0,0.09572834938139431,0.05458823953946287,0.03830843552329002,0.07814024155635875,0.004051859437183082,0.0027519213361556854,1001.0023734044468,1162.420397157324,13.56,1.0,-0.21546673258957677,510.0
12,2.2,0.10070383531597825,0.06168827898203563,0.036104721192025895,0.07392004548364757,0.004016488188632607,0.00282661298350749,991.3538488578931,1146.5627144757755,13.06,1.0,-0.18912080495394057,510.0
13,2.4,0.10526304553491962,0.0682106642139293,0.03406696733802268,0.07000611754673487,0.003998074567633909,0.002897263208019787,983.2428338496933,1132.3149264336216,12.67,1.0,-0.16646553686514992,510.0
14,2.6,0.10945612414928066,0.07421672507489048,0.03218507614051025,0.06638448468451846,0.003988104227446429,0.002962647938527788,976.2180717563604,1119.3823611319463,12.38,1.0,-0.14884005495161695,510.0
