,C/O ratio,CH4 in,CH4 out,CO out,H2 out,H2O out,CO2 out,Exit temp,Max temp,Dist to max temp,O2 conv,Max CH4 Conv,Dist to 50 CH4 Conv
0,0.6000000000000001,0.04220610931192466,0.04214293902610103,9.791451795644456e-07,9.397813595833225e-07,0.0001244894543294034,6.146669186633122e-05,707.830472222876,707.830472222876,20.01,0.003536512312443644,-8.195183553300067e-06,510.0
1,0.7000000000000002,0.04764223879568619,0.047550884088674354,1.2548346771254e-06,1.765454175103763e-06,0.00017966903070602033,8.911386359002216e-05,710.9911708737543,710.9911708737543,20.01,0.005283338555716326,-1.3216102487390025e-05,510.0
2,0.8,0.05273657570711542,0.052604608692773266,1.665359196073782e-06,3.2924592426983333e-06,0.00025885207786322,0.00012894998607916955,715.4333479545182,715.4333479545182,20.01,0.007872042814039743,-2.2382194853759474e-05,510.0
3,0.9000000000000001,0.05752037248751414,0.057323497124284084,2.4088857311108533e-06,6.480149534158742e-06,0.0003846923382504113,0.0001925578796633841,722.3918058499754,722.3918058499754,70.0,0.012092355673488549,-4.3305887936773146e-05,510.0
4,1.0,0.06202118410625546,0.061687588907238335,4.572603108031262e-06,1.620921063382527e-05,0.000646900426274686,0.00032605195330134764,736.78952526944,736.78952526944,70.0,0.02103178613723765,-0.00012953268571161414,510.0
5,1.1,0.0662633991614029,0.018395793521561274,0.04409006820479774,0.08716068080044431,0.008519087150544814,0.0037270579814586012,1225.485962104346,1277.435233451032,19.73,0.9971012983785761,-0.43394790637179337,70.0
6,1.2,0.07026868199272561,0.0199237940313349,0.04768830080096343,0.09497350795458442,0.0056612823431032855,0.0026037648543513143,1102.7924410028736,1257.401471699542,18.400000000000002,0.9999999999998823,-0.3939419220311338,70.0
7,1.3000000000000003,0.07405634272972031,0.024533518390415152,0.04691183614963472,0.09403891277177065,0.004946957671695386,0.0025537753146584884,1071.5904528315561,1240.5552042436552,17.330000000000002,1.0,-0.35609111612471406,70.0
8,1.3999999999999995,0.07764364861664726,0.029276387244287747,0.04574927841291155,0.09207302266542784,0.004597020451908571,0.0025566964368942155,1052.862846091565,1225.8987242247458,16.46,1.0,-0.3355098235659146,70.0
9,1.6000000000000003,0.08427758988601221,0.03840661836352008,0.043196865966579595,0.08740337974443929,0.004265349304584107,0.0026056166912657402,1028.9143401090907,1201.0690300691094,15.160000000000002,1.0,-0.28569976419743626,70.0
10,1.8,0.09027684884714633,0.046846108271988963,0.0406801008462397,0.08265889846836043,0.004121533727981376,0.0026760652246637403,1012.9857621351769,1180.3475533268668,14.230000000000002,1.0,-0.24529832059929924,510.0
11,2.0,0.09572834938139431,0.05458823872060127,0.0383084366587757,0.07814024373791963,0.004051858910238706,0.002751921032331517,1001.002343291973,1162.4203743454743,13.56,1.0,-0.21546704293206181,510.0
12,2.2,0.10070383531597825,0.06168827816769616,0.036104722334713873,0.0739200476478995,0.004016487670697687,0.0028266126727796406,991.3538196622333,1146.5626875406847,13.06,1.0,-0.18912070869092634,510.0
13,2.4,0.10526304553491962,0.068210663393407,0.03406696849573937,0.07000611972994271,0.003998074048592888,0.0028972628900223933,983.242805211254,1132.3149070576771,12.67,1.0,-0.16646531102338935,510.0
14,2.6000000000000005,0.10945612414928066,0.07421672423977974,0.0321850773679795,0.06638448686642077,0.00398810374286652,0.0029626475687141948,976.2180431805385,1119.382333766126,12.38,1.0,-0.14884007345608713,510.0
