,C/O ratio,CH4 in,CH4 out,CO out,H2 out,H2O out,CO2 out,Exit temp,Max temp,Dist to max temp,O2 conv,Max CH4 Conv,Dist to 50 CH4 Conv
0,0.6000000000000001,0.04220610931192466,0.042142939026101264,9.791451795643414e-07,9.397813595829033e-07,0.00012448945432935556,6.146669186630766e-05,707.8304722228735,707.8304722228735,20.01,0.003536512312445617,-8.195183552606178e-06,510.0
1,0.7000000000000002,0.04764223879568619,0.04755088408867424,1.254834677125156e-06,1.7654541751034477e-06,0.000179669030705992,8.911386359000827e-05,710.9911708737485,710.9911708737485,20.01,0.005283338555712655,-1.3216102488083914e-05,510.0
2,0.8,0.05273657570711542,0.0526046086927733,1.6653591960734987e-06,3.292459242696584e-06,0.00025885207786311234,0.00012894998607911493,715.4333479545104,715.4333479545104,20.01,0.007872042814035321,-2.2382194853759474e-05,510.0
3,0.9000000000000001,0.05752037248751414,0.05732349712428459,2.408885731111172e-06,6.4801495341592154e-06,0.0003846923382504166,0.0001925578796633858,722.3918058499828,722.3918058499828,70.0,0.012092355673498104,-4.3305887936773146e-05,510.0
4,0.9999999999999999,0.06202118410625546,0.061687588907242574,4.572603108028807e-06,1.6209210633815765e-05,0.0006469004262745137,0.00032605195330125206,736.7895252694251,736.7895252694251,70.0,0.021031786137297948,-0.0001295326857136958,510.0
5,1.1,0.0662633991614029,0.018395793520269075,0.04409006820460802,0.08716068080259144,0.008519087150833294,0.003727057981512838,1225.4859621012206,1277.4352334511298,19.73,0.9971012983784284,-0.43394790640033304,70.0
6,1.2,0.07026868199272561,0.019923794028314748,0.0476883008023399,0.0949735079595677,0.005661282343038551,0.002603764854410739,1102.7924409934878,1257.4014717000678,18.400000000000002,0.9999999999998823,-0.3939419220218211,70.0
7,1.3000000000000003,0.07405634272972031,0.02453351838801892,0.046911836151672055,0.09403891277542786,0.0049469576713475644,0.0025537753146389675,1071.5904528264284,1240.5552042428963,17.330000000000002,1.0,-0.35609111614816336,70.0
8,1.3999999999999995,0.07764364861664726,0.029276387235989763,0.045749278420289176,0.09207302267555724,0.004597020451721926,0.0025566964367262075,1052.862846104546,1225.8987242246812,16.46,1.0,-0.33550982356095743,70.0
9,1.6000000000000003,0.08427758988601221,0.03840661837434902,0.04319686594999624,0.08740337973346111,0.0042653493071432525,0.00260561669218591,1028.9143400812918,1201.0690300724473,15.160000000000002,1.0,-0.28569976415052795,70.0
10,1.8,0.09027684884714632,0.046846108271388756,0.04068010084065726,0.0826588984716092,0.00412153372969133,0.0026760652253337834,1012.9857621222745,1180.347553336246,14.230000000000002,1.0,-0.24529832059828477,510.0
11,2.0,0.09572834938139431,0.0545882387233925,0.03830843665170825,0.07814024373770098,0.004051858911526553,0.0027519210328802637,1001.0023432706259,1162.4203743646872,13.56,1.0,-0.2154670429310307,510.0
12,2.2000000000000006,0.10070383531597826,0.061688278154182895,0.0361047223535808,0.0739200476614127,0.004016487667346559,0.002826612671482971,991.3538196704465,1146.5626875416,13.06,1.0,-0.18912070871285325,510.0
13,2.4,0.10526304553491962,0.06821066337460684,0.03406696850494041,0.07000611975608186,0.003998074049301892,0.0028972628905375862,983.2428052114135,1132.3149070643333,12.67,1.0,-0.16646531104681506,510.0
14,2.6,0.10945612414928066,0.0742167242284001,0.03218507737844597,0.06638448688262298,0.003988103740761523,0.0029626475683464195,976.2180431570933,1119.3823337610554,12.38,1.0,-0.14884007345372513,510.0
