,C/O ratio,CH4 in,CH4 out,CO out,H2 out,H2O out,CO2 out,Exit temp,Max temp,Dist to max temp,O2 conv,Max CH4 Conv,Dist to 50 CH4 Conv
0,0.6000000000000001,0.04220610931192466,0.04217182787510755,6.67001429495272e-07,6.187699896333998e-07,6.743424287330032e-05,3.3186292182077236e-05,704.2406695708739,704.2406695708739,20.01,0.001915628948819257,-4.030387395353996e-06,510.0
1,0.7000000000000002,0.04764223879568619,0.04759212435003422,8.312407402682929e-07,1.1023665775090168e-06,9.841403968300228e-05,4.8704413796504806e-05,706.0233125681823,706.0233125681823,20.01,0.002894265569258554,-6.283770376952491e-06,510.0
2,0.8,0.05273657570711542,0.05266482993878391,1.042677953651082e-06,1.9031935419639038e-06,0.00014059862245807374,6.992290053448692e-05,708.3927406838474,708.3927406838479,20.0,0.004275966224461507,-9.82414487607497e-06,510.0
3,0.9000000000000001,0.05752037248751414,0.05741814392058231,1.3389216934457914e-06,3.2648219082755516e-06,0.0001998120520430132,9.983009748541839e-05,711.6544394084809,711.6544394084809,20.01,0.006278455658271594,-1.5856981153833383e-05,510.0
4,1.0,0.06202118410625546,0.06187309845553118,1.8131768058865634e-06,5.759897793905618e-06,0.0002884514103643285,0.00014480220298486318,716.4649753802017,716.4649753802017,20.01,0.009358257646528851,-2.7767917994830915e-05,510.0
5,1.1,0.0662633991614029,0.06603549890861105,2.7957121446582477e-06,1.12772324004206e-05,0.00044159638749910647,0.00022295214596234828,724.6954168525612,724.6954168525635,20.01,0.014790523444072723,-5.985658644847014e-05,510.0
6,1.2,0.07026868199272561,0.06980771310215089,7.697571574765981e-06,3.6878195068006034e-05,0.0008796692033353261,0.0004493691943732976,748.1825532005023,748.1825532005023,70.0,0.030519936568081222,-0.000332528191297754,510.0
7,1.3000000000000003,0.07405634272972031,0.026505717893667537,0.04456683682881218,0.0884634007256673,0.006565767527594176,0.0029167468329460294,1123.8004087293502,1240.7765990149514,19.19,0.9999996975410331,-0.36417403654300934,70.0
8,1.3999999999999995,0.07764364861664726,0.03002253423582021,0.044914896879306505,0.08990279286170201,0.0052677085393947505,0.002638522795940372,1072.1405386044219,1226.151945145143,17.96,0.9999999999999999,-0.3350620096466708,20.0
9,1.6000000000000005,0.08427758988601222,0.03867845067490927,0.04288910521499663,0.0866130129897088,0.004508185156004134,0.0026380744191902474,1035.7530557703446,1201.3306145438037,16.16,1.0,-0.2851491275763271,20.0
10,1.8,0.09027684884714632,0.046983746417674,0.04052654872522212,0.08225572378322979,0.004247198969093739,0.0026900065947897136,1016.351682114996,1180.5916794538994,14.940000000000001,1.0,-0.24666843364523489,510.0
11,2.0,0.09572834938139431,0.05466717053535513,0.038224557809172374,0.07790492241967367,0.00412803309916113,0.0027557723921424835,1002.8732709066451,1162.670774507233,14.06,1.0,-0.2142628905057231,510.0
12,2.2,0.10070383531597825,0.06173612120329649,0.03605860223279898,0.07377305351246165,0.004067122742013478,0.0028243545966869918,992.4473589623874,1146.8483505318816,13.430000000000001,1.0,-0.18886858926121658,510.0
13,2.4,0.10526304553491962,0.06824009828813414,0.034043634837706754,0.06991116217819017,0.004033911117677856,0.002891010887184392,983.8846996431377,1132.6288431199798,12.950000000000001,1.0,-0.16581557698111815,510.0
14,2.6000000000000005,0.10945612414928066,0.07423441898266232,0.032176531683841145,0.06632256949712223,0.004014690973166754,0.002953626704594413,976.5773353201217,1119.709521374166,12.59,1.0,-0.14820319085099426,510.0
