,C/O ratio,CH4 in,CH4 out,CO out,H2 out,H2O out,CO2 out,Exit temp,Max temp,Dist to max temp,O2 conv,Max CH4 Conv,Dist to 50 CH4 Conv
0,0.6000000000000001,0.04220610931192466,0.04214293906425946,9.791436293251663e-07,9.397804087719739e-07,0.00012448937888627197,6.146665519614793e-05,707.8304674927024,707.8304674927024,20.01,0.0035365101756662702,-8.195177352010585e-06,510.0
1,0.7000000000000002,0.04764223879568619,0.04755088414736055,1.2548325824569983e-06,1.7654522866640713e-06,0.00017966891516600124,8.911380695160021e-05,710.9911638052117,710.9911638052117,20.01,0.005283335163231228,-1.3216090912621103e-05,510.0
2,0.8,0.05273657570711542,0.05260460878808278,1.665356155824946e-06,3.2924552894899808e-06,0.00025885189124898563,0.00012894989384101835,715.433336808757,715.433336808757,20.01,0.00787203713844438,-2.2382170143664393e-05,510.0
3,0.9000000000000001,0.05752037248751414,0.057323497307135755,2.4088805058920297e-06,6.4801397159363155e-06,0.0003846919883619589,0.00019255770790475575,722.3917855590878,722.3917855590878,20.03,0.012092344653973023,-4.330581757777674e-05,510.0
4,1.0,0.06202118410625546,0.061687589429217767,4.572587243162104e-06,1.6209166343635325e-05,0.0006468994419897015,0.0003260514618420573,736.7894696573993,736.7894696573993,20.060000000000002,0.021031753948831992,-0.00012953220930866927,510.0
5,1.1,0.0662633991614029,0.018366501716468316,0.0440886006915562,0.0871725982661988,0.008545456548690579,0.0037338990645730315,1226.3122280095397,1277.7495409383896,19.740000000000002,0.9969893218374413,-0.4334257612936619,70.0
6,1.2,0.07026868199272561,0.019923797020195283,0.04768829692773301,0.09497349986163543,0.005661284451328114,0.0026037657364961753,1102.7925335286357,1257.4015098695656,18.400000000000002,0.9999999999998823,-0.3939335798067073,70.0
7,1.3000000000000003,0.07405634272972031,0.024533519973349245,0.04691183420000597,0.09403890836227372,0.004946958903123077,0.0025537756761467804,1071.590506387434,1240.5552267416695,17.330000000000002,1.0,-0.3560973827954936,70.0
8,1.3999999999999995,0.07764364861664726,0.029073125381164206,0.04586327627849682,0.09238798957180236,0.0046176531857411544,0.002561933035813647,1053.2882010353874,1226.6127865026053,16.46,1.0,-0.3375413515657427,70.0
9,1.6000000000000005,0.08427758988601222,0.03835836393013986,0.04320437293402191,0.08747475217492238,0.004273898160091107,0.002608912620158492,1028.9481197642986,1201.193244082625,15.150000000000002,1.0,-0.2858331810947787,70.0
10,1.7999999999999998,0.09027684884714633,0.046640188470575245,0.04078090289987364,0.08297782241990595,0.004141796643199686,0.0026827861891127827,1013.2748548517402,1181.0040480532243,14.230000000000002,1.0,-0.24668096088277663,510.0
11,2.0,0.09572834938139428,0.05458823949309756,0.03830843558394747,0.07814024160546444,0.004051859428031404,0.0027519213326397014,1001.0023734623932,1162.4203971715735,13.56,1.0,-0.21546673259449228,510.0
12,2.2,0.10070383531597825,0.06129073134964992,0.036370346876657,0.07453348896738632,0.004036274666608611,0.00283059713091085,992.0367443582378,1148.0176751417812,13.06,1.0,-0.1920540383425831,510.0
13,2.4,0.10526304553491962,0.0682106641871923,0.03406696736604827,0.07000611757543855,0.003998074564412217,0.002897263206725399,983.242833878779,1132.31492642911,12.67,1.0,-0.1664655368566234,510.0
14,2.6,0.10945612414928066,0.07421672507267486,0.03218507613713257,0.0663844846904481,0.0039881042289776425,0.002962647939080451,976.2180717460096,1119.3823611210512,12.38,1.0,-0.14884005493103758,510.0
