,C/O ratio,CH4 in,CH4 out,CO out,H2 out,H2O out,CO2 out,Exit temp,Max temp,Dist to max temp,O2 conv,Max CH4 Conv,Dist to 50 CH4 Conv
0,0.6000000000000001,0.04220610931192466,0.04214293902610119,9.791451795646753e-07,9.397813595837668e-07,0.00012448945432944625,6.146669186635285e-05,707.830472222882,707.830472222882,20.01,0.003536512312447195,-8.195183553300067e-06,510.0
1,0.7000000000000002,0.04764223879568619,0.04755088408867437,1.2548346771260355e-06,1.7654541751056775e-06,0.00017966903070615068,8.911386359008757e-05,710.9911708737636,710.9911708737636,20.01,0.005283338555721423,-1.3216102487390025e-05,510.0
2,0.8,0.05273657570711542,0.05260460869277341,1.66535919607291e-06,3.292459242695627e-06,0.0002588520778630897,0.00012894998607910436,715.4333479545024,715.4333479545024,20.01,0.007872042814036374,-2.2382194853759474e-05,510.0
3,0.8999999999999999,0.05752037248751414,0.05732349712428482,2.408885731111156e-06,6.480149534159428e-06,0.000384692338250429,0.00019255787966338957,722.3918058500229,722.3918058500229,70.0,0.012092355673501358,-4.3305887936773146e-05,510.0
4,0.9999999999999999,0.06202118410625546,0.06168758890724177,4.572603108051648e-06,1.620921063390853e-05,0.0006469004262765913,0.0003260519533023077,736.7895252695336,736.7895252695336,70.0,0.021031786137368655,-0.0001295326857143897,510.0
5,1.1,0.0662633991614029,0.01839579352158362,0.044090068204695326,0.08716068080027609,0.008519087150596434,0.0037270579814770908,1225.4859621064325,1277.4352334512266,19.73,0.9971012983781802,-0.4339479063860292,70.0
6,1.2,0.07026868199272561,0.01992379403071794,0.04768830080139887,0.09497350795557466,0.0056612823430410445,0.0026037648543450814,1102.7924410010073,1257.4014716998354,18.400000000000002,0.9999999999998823,-0.39394192204417267,70.0
7,1.3000000000000003,0.07405634272972031,0.0245335183899569,0.0469118361503082,0.09403891277233357,0.00494695767155736,0.0025537753146228294,1071.5904528312208,1240.555204244427,17.330000000000002,1.0,-0.3560911161351085,70.0
8,1.3999999999999995,0.07764364861664726,0.0292763872442263,0.04574927841300394,0.09207302266546416,0.004597020451891836,0.002556696436890716,1052.8628460917635,1225.8987242253963,16.46,1.0,-0.3355098235705345,70.0
9,1.6000000000000003,0.08427758988601221,0.03840661836490651,0.04319686596426472,0.08740337974291539,0.004265349305039517,0.0026056166914059297,1028.914340107578,1201.0690300701776,15.160000000000002,1.0,-0.28569976420029924,70.0
10,1.8,0.09027684884714633,0.04684610826774409,0.04068010085249422,0.08265889847300661,0.004121533726810231,0.002676065224324615,1012.9857621395673,1180.347553328715,14.230000000000002,1.0,-0.24529832059843604,510.0
11,2.0,0.09572834938139431,0.05458823872068621,0.03830843665763205,0.0781402437382526,0.004051858910596024,0.002751921032448697,1001.0023432907749,1162.4203743445626,13.56,1.0,-0.21546704293114172,510.0
12,2.2,0.10070383531597825,0.061688278164433466,0.0361047223379954,0.07392004765112897,0.004016487670491593,0.0028266126726373447,991.3538196694334,1146.5626875407377,13.06,1.0,-0.18912070869428338,510.0
13,2.4,0.10526304553491962,0.06821066339704941,0.03406696849186336,0.07000611972601374,0.00399807404913424,0.0028972628901707442,983.2428052078238,1132.3149070565314,12.67,1.0,-0.1664653110197381,510.0
14,2.6000000000000005,0.10945612414928066,0.07421672424026694,0.032185077367250355,0.06638448686591597,0.003988103743013463,0.002962647568781621,976.218043180887,1119.382333765932,12.38,1.0,-0.1488400734554557,510.0
