,C/O ratio,CH4 in,CH4 out,CO out,H2 out,H2O out,CO2 out,Exit temp,Max temp,Dist to max temp,O2 conv,Max CH4 Conv,Dist to 50 CH4 Conv
0,0.6000000000000001,0.04220610931192466,0.04214293902610098,9.791451795644422e-07,9.397813595837849e-07,0.0001244894543294672,6.146669186636318e-05,707.8304722228747,707.8304722228747,20.01,0.003536512312445025,-8.195183553300067e-06,510.0
1,0.7000000000000002,0.04764223879568619,0.04755088408867412,1.2548346771255228e-06,1.7654541751044984e-06,0.00017966903070608834,8.911386359005625e-05,710.9911708737566,710.9911708737566,20.01,0.005283338555715918,-1.3216102488777803e-05,510.0
2,0.8,0.05273657570711542,0.05260460869277354,1.6653591960735464e-06,3.292459242697553e-06,0.00025885207786318547,0.00012894998607915198,715.433347954518,715.433347954518,20.01,0.0078720428140429,-2.2382194855841142e-05,510.0
3,0.9000000000000001,0.05752037248751414,0.057323497124281864,2.4088857311103256e-06,6.480149534156255e-06,0.00038469233825105955,0.00019255787966332975,722.3918058499926,722.3918058499926,70.0,0.012092355673497668,-4.3305887936773146e-05,510.0
4,1.0,0.06202118410625546,0.061687588907241325,4.572603108027728e-06,1.6209210633811442e-05,0.0006469004262744736,0.00032605195330122507,736.7895252692954,736.7895252692954,70.0,0.021031786137276024,-0.00012953268571508358,510.0
5,1.1,0.0662633991614029,0.018395793521373886,0.04409006820477717,0.08716068080076662,0.008519087150591367,0.0037270579814608113,1225.4859621036942,1277.4352334512575,19.73,0.9971012983786164,-0.43394790637955455,70.0
6,1.2,0.07026868199272561,0.019923794030593862,0.04768830080103514,0.09497350795572408,0.005661282343225816,0.002603764854395176,1102.792441002334,1257.4014717006296,18.400000000000002,0.9999999999998823,-0.3939419220377688,70.0
7,1.3000000000000003,0.07405634272972031,0.024533518390368637,0.04691183614938818,0.0940389127718608,0.004946957671792095,0.0025537753146843947,1071.5904528314627,1240.5552042440518,17.330000000000002,1.0,-0.3560911161247779,70.0
8,1.3999999999999995,0.07764364861664726,0.029276387243627973,0.045749278413568614,0.09207302266631394,0.0045970204518172115,0.0025566964368825946,1052.8628460916023,1225.8987242250237,16.46,1.0,-0.3355098235656259,70.0
9,1.6000000000000005,0.08427758988601222,0.03840661836662787,0.0431968659628436,0.08740337974066417,0.004265349305102584,0.0026056166914386527,1028.9143401065533,1201.069030069049,15.160000000000002,1.0,-0.28569976420011467,70.0
10,1.7999999999999998,0.09027684884714632,0.04684610827007305,0.04068010084940254,0.08265889847028356,0.004121533727363977,0.002676065224471336,1012.9857621380932,1180.347553328214,14.230000000000002,1.0,-0.245298320598418,510.0
11,2.0,0.09572834938139431,0.054588238718646494,0.03830843666142421,0.07814024373977262,0.004051858909877558,0.0027519210321652935,1001.0023432961389,1162.420374344878,13.56,1.0,-0.21546704293241986,510.0
12,2.2,0.10070383531597825,0.061688278170177975,0.036104722331778166,0.07392004764512271,0.0040164876711904175,0.002826612672897415,991.3538196601706,1146.5626875407647,13.06,1.0,-0.189120708693713,510.0
13,2.4,0.10526304553491962,0.06821066339634702,0.03406696849271472,0.07000611972686469,0.0039980740489398555,0.002897262890138386,983.2428052073101,1132.3149070585093,12.67,1.0,-0.1664653110209205,510.0
14,2.6000000000000005,0.10945612414928066,0.07421672424307457,0.03218507736436538,0.06638448686318334,0.00398810374331052,0.0029626475688956,976.2180431758959,1119.3823337661295,12.38,1.0,-0.14884007345397632,510.0
