,C/O ratio,CH4 in,CH4 out,CO out,H2 out,H2O out,CO2 out,Exit temp,Max temp,Dist to max temp,O2 conv,Max CH4 Conv,Dist to 50 CH4 Conv
0,0.6000000000000001,0.04220610931192466,0.042171827875107294,6.670014294957658e-07,6.18769989647411e-07,6.743424287372274e-05,3.31862921821473e-05,704.2406695708992,704.2406695708992,20.01,0.0019156289488356318,-4.0303873946601065e-06,510.0
1,0.7000000000000002,0.04764223879568619,0.04759212435003379,8.312407402686332e-07,1.102366577523735e-06,9.841403968333795e-05,4.870441379650584e-05,706.0233125682063,706.0233125682063,20.01,0.0028942655692689528,-6.283770376258602e-06,510.0
2,0.8,0.05273657570711542,0.05266482993878336,1.042677953651619e-06,1.9031935419890222e-06,0.00014059862245857524,6.992290053446927e-05,708.3927406838728,708.3927406838728,20.01,0.004275966224479822,-9.82414487538108e-06,510.0
3,0.9000000000000001,0.05752037248751414,0.05741814392058154,1.3389216934461967e-06,3.264821908305419e-06,0.0001998120520436565,9.983009748541792e-05,711.6544394085117,711.6544394085117,20.01,0.006278455658292006,-1.5856981154527272e-05,510.0
4,0.9999999999999998,0.06202118410625545,0.0618730984555305,1.813176805882939e-06,5.759897793938199e-06,0.0002884514103646994,0.00014480220298454172,716.4649753801907,716.4649753801907,20.01,0.009358257646544178,-2.7767917992055358e-05,510.0
5,1.1000000000000005,0.06626339916140292,0.06603549890238332,2.795712146870103e-06,1.1277232403984133e-05,0.00044159639372482167,0.0002229521459626369,724.695417090731,724.695417090731,70.0,0.014790523650690415,-5.985658644847014e-05,510.0
6,1.2,0.07026868199272561,0.06980771309674931,7.697571577505967e-06,3.6878195073629e-05,0.0008796692087467172,0.00044936919437845525,748.1825534014263,748.1825534014263,70.0,0.030519936752967394,-0.00033252819131579514,510.0
7,1.2999999999999998,0.0740563427297203,0.026505717882034034,0.04456683684187742,0.08846340074684285,0.006565767523752895,0.002916746831550794,1123.8004086233886,1240.7765989516088,19.19,0.9999996975410345,-0.36417403678131177,70.0
8,1.3999999999999995,0.07764364861664726,0.030022534299566223,0.04491489688028859,0.08990277710504863,0.005267708544066922,0.0026385227976786383,1072.1407873692162,1226.1519450968124,17.96,0.9999999999999999,-0.335062009695386,70.0
9,1.6000000000000005,0.08427758988601222,0.038678450667455885,0.04288910521676691,0.08661300019588326,0.004508185160003498,0.002638074420324979,1035.7532536880346,1201.3306145101938,16.16,1.0,-0.2851491274694279,70.0
10,1.8,0.09027684884714632,0.04698374654688693,0.0405265485433132,0.08225571372812908,0.0042471990063711286,0.0026900066081556448,1016.3518313166255,1180.591679508229,14.940000000000001,1.0,-0.2466684336998523,510.0
11,2.0,0.09572834938139431,0.05466717073639737,0.038224557510005794,0.07790491440005042,0.004128033160979652,0.0027557724133902414,1002.8733857529216,1162.67077447741,14.06,1.0,-0.21426289080338917,510.0
12,2.2,0.10070383531597825,0.06173612105330486,0.036058602414252225,0.07377304744010674,0.004067122725151863,0.0028243545889120943,992.4474489920385,1146.848350543864,13.430000000000001,1.0,-0.1888685893435757,510.0
13,2.4,0.10526304553491962,0.06824009793124639,0.03404363528703999,0.06991115759456588,0.004033911043337325,0.0028910108610857763,983.8847701299627,1132.6288429907502,12.950000000000001,1.0,-0.16581557769002192,510.0
14,2.6,0.10945612414928066,0.0742344190916031,0.032176531505902405,0.06632256545927798,0.004014691012665643,0.00295362671694447,976.5773903088485,1119.7095214819155,12.59,1.0,-0.14820319033043428,510.0
