,C/O ratio,CH4 in,CH4 out,CO out,H2 out,H2O out,CO2 out,Exit temp,Max temp,Dist to max temp,O2 conv,Max CH4 Conv,Dist to 50 CH4 Conv
0,0.6000000000000001,0.04220610931192466,0.04214293902508609,9.79145184152646e-07,9.397813750225577e-07,0.00012448945628414662,6.146669279864304e-05,707.8304723431138,707.8304723431138,20.01,0.003536512366227742,-8.195183613668444e-06,510.0
1,0.7000000000000002,0.04764223879568619,0.04755088408852881,1.2548346779502303e-06,1.765454178149529e-06,0.00017966903098679164,8.911386372517912e-05,710.9911708905722,710.9911708905722,20.01,0.005283338563730372,-1.3216102501267812e-05,510.0
2,0.8,0.05273657570711542,0.05260460869277456,1.6653591960722324e-06,3.292459242653771e-06,0.0002588520778620005,0.00012894998607905842,715.4333479544604,715.4333479544604,20.01,0.007872042814001428,-2.2382194854453363e-05,510.0
3,0.9000000000000001,0.05752037248751414,0.05732349712983831,2.4088857289726287e-06,6.480149530910413e-06,0.00038469233269518266,0.0001925578796633195,722.3918056276667,722.3918056276667,20.01,0.012092355499644035,-4.3305887936773146e-05,510.0
4,1.0,0.06202118410625546,0.06168758892001512,4.572603102312904e-06,1.62092106241057e-05,0.0006469004135000375,0.0003260519533024633,736.7895247728459,736.7895247728459,20.020000000000003,0.021031785725370917,-0.00012953268571300192,510.0
5,1.1,0.0662633991614029,0.018395793505213722,0.044090068203983375,0.08716068082997477,0.0085190871537729,0.0037270579818804005,1225.4859620409059,1277.4352334383605,19.73,0.9971012983865303,-0.43394790631547037,70.0
6,1.2,0.07026868199272561,0.01992379401325028,0.04768830079961177,0.09497350798552412,0.005661282346834211,0.002603764855748231,1102.7924409761783,1257.401471702536,18.400000000000002,0.9999999999998823,-0.39394192187528904,70.0
7,1.3000000000000003,0.07405634272972031,0.024533518315548525,0.046911836168145635,0.09403893105229519,0.004946957667393616,0.0025537753143933003,1071.5901583776574,1240.555204343745,17.330000000000002,1.0,-0.35609111612245753,20.0
8,1.3999999999999995,0.07764364861664726,0.029276387169430065,0.045749278497068835,0.09207303856903921,0.004597020430956056,0.002556696431484456,1052.862594067922,1225.8987242341138,16.46,1.0,-0.3355098235607257,20.0
9,1.6000000000000005,0.08427758988601222,0.03840661839455274,0.043196865871738245,0.08740339189196016,0.0042653493294053275,0.002605616698962689,1028.9141516366085,1201.069030078307,15.160000000000002,1.0,-0.2856997642202791,20.0
10,1.7999999999999996,0.09027684884714632,0.046846108174329965,0.04068010097181719,0.08265890823821938,0.004121533701289816,0.0026760652164245532,1012.9856166610609,1180.347553343092,14.230000000000002,1.0,-0.2452983202804515,510.0
11,2.0,0.09572834938139431,0.054588238433924706,0.03830843702803352,0.07814025177858773,0.004051858849751863,0.00275192100951189,1001.0022297143242,1162.4203743914602,13.56,1.0,-0.21546704293150115,510.0
12,2.2,0.10070383531597825,0.06168827792571389,0.03610472259232107,0.07392005414555088,0.004016487634621619,0.0028266126589933252,991.3537300561918,1146.5626875841203,13.06,1.0,-0.18912070873099568,510.0
13,2.4,0.10526304553491962,0.06821066332045439,0.03406696857384768,0.07000612480557893,0.003998074037686359,0.0028972628856667984,983.2427344656724,1132.3149071017608,12.67,1.0,-0.1664653100554206,510.0
14,2.6,0.10945612414928066,0.07395805710045399,0.032362373750832216,0.06677762687183894,0.0039989858691866454,0.002964226250499599,976.6784025088627,1120.3712196931413,12.38,1.0,-0.15050275741843033,510.0
