,C/O ratio,CH4 in,CH4 out,CO out,H2 out,H2O out,CO2 out,Exit temp,Max temp,Dist to max temp,O2 conv,Max CH4 Conv,Dist to 50 CH4 Conv
0,0.6000000000000001,0.04220610931192466,0.04214293902610116,9.791451795640818e-07,9.397813595828169e-07,0.0001244894543293614,6.146669186631043e-05,707.8304722228645,707.8304722228645,20.01,0.003536512312443447,-8.195183552606178e-06,510.0
1,0.7000000000000002,0.04764223879568619,0.04755088408867417,1.2548346771259512e-06,1.7654541751051047e-06,0.0001796690307061132,8.911386359006881e-05,710.9911708737641,710.9911708737641,20.01,0.005283338555715918,-1.3216102488777803e-05,510.0
2,0.8,0.05273657570711542,0.05260460869277345,1.6653591960740408e-06,3.2924592426987187e-06,0.0002588520778632304,0.00012894998607917434,715.4333479545211,715.4333479545211,20.01,0.00787204281404269,-2.238219485653503e-05,510.0
3,0.9000000000000001,0.05752037248751414,0.05732349712428409,2.408885731111216e-06,6.480149534160056e-06,0.00038469233825044215,0.0001925578796633984,722.3918058499365,722.3918058499365,70.0,0.012092355673489635,-4.330588793607926e-05,510.0
4,1.0,0.06202118410625546,0.06168758890724118,4.572603108021973e-06,1.6209210633784757e-05,0.0006469004262737704,0.0003260519533008776,736.7895252693385,736.7895252693385,70.0,0.02103178613724548,-0.00012953268570953247,510.0
5,1.1,0.0662633991614029,0.018395793521577747,0.044090068204810005,0.08716068080042437,0.008519087150520332,0.0037270579814603906,1225.4859621042663,1277.4352334511052,19.73,0.9971012983785509,-0.433947906367807,70.0
6,1.2,0.07026868199272561,0.0199237940310471,0.04768830080101298,0.09497350795499887,0.0056612823431512445,0.002603764854367345,1102.7924410030096,1257.4014717002262,18.400000000000002,0.9999999999998823,-0.39394192203559,70.0
7,1.3000000000000003,0.07405634272972031,0.02453351839056122,0.04691183614913577,0.09403891277146914,0.00494695767187873,0.0025537753147005715,1071.590452833155,1240.5552042442532,17.330000000000002,1.0,-0.35609111613118666,70.0
8,1.3999999999999995,0.07764364861664726,0.029276387244576357,0.04574927841296725,0.09207302266495752,0.004597020451827892,0.00255669643686456,1052.8628460915552,1225.8987242245018,16.46,1.0,-0.335509823565773,70.0
9,1.6000000000000003,0.08427758988601221,0.03840661836535464,0.043196865964049876,0.0874033797424564,0.004265349304950165,0.002605616691394405,1028.9143401054814,1201.0690300695192,15.160000000000002,1.0,-0.28569976420033394,70.0
10,1.8,0.09027684884714633,0.046846108269933566,0.040680100849508884,0.0826588984704334,0.004121533727394436,0.002676065224457217,1012.985762138514,1180.347553328298,14.230000000000002,1.0,-0.24529832059120987,510.0
11,2.0,0.09572834938139431,0.05458823871917052,0.03830843666070356,0.07814024373965288,0.0040518589098588135,0.0027519210322114003,1001.0023432911289,1162.4203743452083,13.56,1.0,-0.2154670429314401,510.0
12,2.2,0.10070383531597825,0.0616882781706537,0.03610472233015936,0.07392004764502785,0.0040164876716217235,0.0028266126730607266,991.353819659073,1146.5626875404025,13.06,1.0,-0.18912070869461645,510.0
13,2.4,0.10526304553491962,0.06821066339107454,0.03406696849865128,0.07000611973214865,0.003998074048188977,0.002897262889842976,983.2428052153168,1132.314907058807,12.67,1.0,-0.16646531102559314,510.0
14,2.6000000000000005,0.10945612414928066,0.07421672424230766,0.03218507736565025,0.06638448686382656,0.003988103743021277,0.0029626475688023374,976.2180431766114,1119.382333765604,12.38,1.0,-0.14884007345193767,510.0
