,C/O ratio,CH4 in,CH4 out,CO out,H2 out,H2O out,CO2 out,Exit temp,Max temp,Dist to max temp,O2 conv,Max CH4 Conv,Dist to 50 CH4 Conv
0,0.6000000000000001,0.04220610931192466,0.04214293902510304,9.791451840913276e-07,9.397813748443369e-07,0.00012448945625343597,6.146669278562056e-05,707.8304723413193,707.8304723413193,20.01,0.003536512365446884,-8.195183612280665e-06,510.0
1,0.7000000000000002,0.04764223879568619,0.04755088408857661,1.2548346776853394e-06,1.7654541771866977e-06,0.00017966903089584838,8.911386368196786e-05,710.9911708851664,710.9911708851664,20.01,0.005283338561157713,-1.3216102495716697e-05,510.0
2,0.8,0.05273657570711542,0.05260460869277424,1.665359196073729e-06,3.2924592426683725e-06,0.0002588520778623661,0.0001289499860791427,715.4333479544862,715.4333479544862,20.01,0.007872042814013637,-2.2382194852371695e-05,510.0
3,0.9000000000000001,0.05752037248751414,0.057323497129837614,2.408885728972382e-06,6.480149530946519e-06,0.0003846923326958643,0.000192557879663249,722.3918056276926,722.3918056276926,20.01,0.012092355499668138,-4.330588793538537e-05,510.0
4,1.0,0.06202118410625546,0.06168758890755105,4.572603107912691e-06,1.6209210633661446e-05,0.0006469004259768049,0.0003260519533021029,736.7895252578534,736.7895252578534,70.0,0.021031786127874905,-0.00012953268571092025,510.0
5,1.1,0.0662633991614029,0.01836644104114457,0.044088672074575536,0.08717271813840229,0.008545450623684092,0.003733878771194756,1226.3114341989694,1277.7495627415394,19.740000000000002,0.9969894788877002,-0.43343344341459505,70.0
6,1.1999999999999995,0.07026868199272561,0.019708280810800383,0.04785877818121354,0.09530100095100406,0.00568346842662238,0.002604549659862315,1103.700391251399,1258.3983140412781,18.410000000000004,0.9999999999998667,-0.40052962699762273,70.0
7,1.3000000000000003,0.07405634272972031,0.024533518317668597,0.04691183615106691,0.09403893104868691,0.004946957673808961,0.0025537753160988176,1071.590158419718,1240.5552042403658,17.330000000000002,1.0,-0.35609111597518645,20.0
8,1.3999999999999995,0.07764364861664726,0.029276387251480206,0.045749278369582265,0.09207303845749715,0.004597020459711796,0.0025566964391454477,1052.8625941957966,1225.8987243038544,16.46,1.0,-0.335509823554736,20.0
9,1.6000000000000005,0.08427758988601222,0.03840661812509745,0.0431968662564934,0.08740339226142617,0.004265349244014102,0.0026056166743677342,1028.9141511085395,1201.0690300474434,15.160000000000002,1.0,-0.28569976404830555,20.0
10,1.7999999999999998,0.09027684884714632,0.04684610798964349,0.040680101207566974,0.08265890844357447,0.004121533668022768,0.002676065203932567,1012.9856169052891,1180.34755330108,14.230000000000002,1.0,-0.2452983205800216,510.0
11,2.0,0.09572834938139431,0.054588238696673855,0.03830843669610842,0.07814025148915908,0.004051858898855886,0.0027519210284943437,1001.002229457285,1162.4203743679627,13.56,1.0,-0.21546704271986072,510.0
12,2.2,0.10070383531597825,0.06168827813150095,0.03610472236726307,0.07392005391697586,0.00401648766233048,0.002826612669811762,991.3537298543159,1146.5626875325452,13.06,1.0,-0.18912070907642076,510.0
13,2.4,0.10526304553491962,0.06787685811152268,0.03428044827626342,0.07050632861302038,0.004015757893671666,0.0029014386502781587,983.7935912013139,1133.50084571235,12.68,1.0,-0.16862623945711336,510.0
14,2.6,0.10945612414928066,0.07421672393003542,0.03218507776184612,0.06638449120596565,0.003988103663494962,0.0029626475439656582,976.217987225815,1119.3823338046004,12.38,1.0,-0.1488400734133477,510.0
