,C/O ratio,CH4 in,CH4 out,CO out,H2 out,H2O out,CO2 out,Exit temp,Max temp,Dist to max temp,O2 conv,Max CH4 Conv,Dist to 50 CH4 Conv
0,0.6000000000000001,0.04220610931192466,0.042142939026101035,9.791451795644346e-07,9.397813595837532e-07,0.0001244894543294592,6.146669186635935e-05,707.8304722228755,707.8304722228755,20.01,0.0035365123124452224,-8.195183552606178e-06,510.0
1,0.7000000000000002,0.04764223879568619,0.04755088408867413,1.2548346771256732e-06,1.7654541751048948e-06,0.00017966903070610325,8.911386359006393e-05,710.9911708737584,710.9911708737584,20.01,0.005283338555715714,-1.3216102488777803e-05,510.0
2,0.8,0.05273657570711542,0.05260460869277341,1.665359196073413e-06,3.29245924269759e-06,0.00025885207786317783,0.00012894998607914854,715.4333479545146,715.4333479545146,20.01,0.007872042814039743,-2.2382194855147253e-05,510.0
3,0.8999999999999999,0.05752037248751414,0.057323497124284445,2.4088857311098898e-06,6.480149534155584e-06,0.0003846923382503031,0.00019255787966333042,722.3918058499293,722.3918058499293,70.0,0.012092355673490067,-4.3305887938160925e-05,510.0
4,0.9999999999999999,0.06202118410625546,0.06168758890724099,4.572603108049886e-06,1.6209210633900885e-05,0.0006469004262764222,0.000326051953302227,736.7895252695539,736.7895252695539,70.0,0.021031786137350197,-0.0001295326857143897,510.0
5,1.1,0.0662633991614029,0.01839579352144091,0.04409006820482423,0.08716068080062078,0.008519087150566027,0.0037270579814481595,1225.4859621040391,1277.4352334512275,19.73,0.9971012983786415,-0.4339479063774243,70.0
6,1.2,0.07026868199272561,0.0199237940306447,0.04768830080135843,0.09497350795566431,0.005661282343089401,0.00260376485435725,1102.7924410016524,1257.4014716999254,18.400000000000002,0.9999999999998823,-0.393941922042252,70.0
7,1.3000000000000003,0.07405634272972031,0.024533518388877,0.04691183615074401,0.09403891277398037,0.004946957671630101,0.002553775314659514,1071.5904528306883,1240.5552042434188,17.330000000000002,1.0,-0.3560911161349961,70.0
8,1.3999999999999995,0.07764364861664726,0.02927638724530545,0.04574927841187354,0.09207302266406878,0.004597020452033513,0.002556696436926074,1052.862846091153,1225.8987242244602,16.46,1.0,-0.3355098235613238,70.0
9,1.6000000000000003,0.08427758988601221,0.03840661836495203,0.043196865964364214,0.0874033797428268,0.004265349304999263,0.0026056166913885374,1028.9143401075296,1201.0690300694046,15.160000000000002,1.0,-0.28569976419780263,70.0
10,1.8,0.09027684884714633,0.04684610827236743,0.040680100845429015,0.08265889846796175,0.004121533728175438,0.002676065224723378,1012.9857621350184,1180.3475533273722,14.230000000000002,1.0,-0.24529832059728557,510.0
11,2.0,0.09572834938139431,0.05458823871637193,0.03830843666376371,0.07814024374241361,0.004051858909620009,0.0027519210320854854,1001.0023432988121,1162.4203743447154,13.56,1.0,-0.21546704292239316,510.0
12,2.2,0.10070383531597825,0.061688278167855465,0.03610472233394998,0.07392004764757937,0.004016487671078633,0.002826612672813911,991.3538196644411,1146.5626875401042,13.06,1.0,-0.18912070869493702,510.0
13,2.4,0.10526304553491962,0.0682106633966686,0.034066968492015154,0.07000611972678175,0.0039980740490657835,0.002897262890211097,983.2428052062585,1132.314907057892,12.67,1.0,-0.16646531101900952,510.0
14,2.6000000000000005,0.10945612414928066,0.07421672424356442,0.03218507736336647,0.06638448686292778,0.0039881037435349894,0.002962647568978226,976.218043174662,1119.3823337658516,12.38,1.0,-0.14884007345698086,510.0
