,C/O ratio,CH4 in,CH4 out,CO out,H2 out,H2O out,CO2 out,Exit temp,Max temp,Dist to max temp,O2 conv,Max CH4 Conv,Dist to 50 CH4 Conv
0,0.6000000000000001,0.04220610931192466,0.04214293902610089,9.791451795646001e-07,9.39781359583875e-07,0.0001244894543294751,6.146669186636685e-05,707.8304722228806,707.8304722228806,20.01,0.003536512312444236,-8.195183552606178e-06,510.0
1,0.7000000000000002,0.04764223879568619,0.047550884088673945,1.254834677125778e-06,1.765454175105601e-06,0.0001796690307061722,8.91138635900987e-05,710.9911708737603,710.9911708737603,20.01,0.005283338555715306,-1.3216102489471693e-05,510.0
2,0.8,0.05273657570711542,0.052604608692773246,1.665359196074408e-06,3.292459242700334e-06,0.0002588520778633194,0.00012894998607921928,715.4333479545264,715.4333479545264,20.01,0.007872042814042478,-2.2382194854453363e-05,510.0
3,0.8999999999999999,0.05752037248751414,0.05732349712428408,2.408885731113171e-06,6.480149534167281e-06,0.00038469233825073006,0.00019255787966354236,722.3918058500013,722.3918058500013,70.0,0.01209235567350266,-4.33058879333037e-05,510.0
4,1.0,0.06202118410625546,0.06168758890724153,4.5726031080470755e-06,1.620921063388969e-05,0.0006469004262761843,0.00032605195330209384,736.7895252693902,736.7895252693902,70.0,0.021031786137350423,-0.0001295326857143897,510.0
5,1.1000000000000005,0.06626339916140292,0.0183957935218201,0.04409006820495281,0.08716068080005035,0.008519087150432255,0.003727057981413591,1225.485962103186,1277.4352334511095,19.73,0.9971012983787724,-0.43394790636999553,70.0
6,1.2,0.07026868199272561,0.019923794031198323,0.047688300801230946,0.09497350795476316,0.005661282343030237,0.0026037648543306507,1102.7924410022667,1257.4014717000546,18.400000000000002,0.9999999999998823,-0.39394192204717654,70.0
7,1.3000000000000003,0.07405634272972031,0.024533518390085572,0.046911836149695595,0.09403891277225665,0.004946957671747809,0.002553775314678096,1071.5904528315814,1240.5552042439692,17.330000000000002,1.0,-0.3560911161240937,70.0
8,1.3999999999999995,0.07764364861664726,0.029276387243656894,0.04574927841363868,0.09207302266618848,0.00459702045183233,0.002556696436857909,1052.8628460922519,1225.8987242284566,16.46,1.0,-0.3355098235654608,70.0
9,1.6000000000000003,0.08427758988601221,0.03840661836726666,0.043196865960962234,0.08740337974021362,0.004265349305568195,0.0026056166915859164,1028.9143401047693,1201.0690300692763,15.160000000000002,1.0,-0.2856997641973266,70.0
10,1.7999999999999996,0.09027684884714632,0.046846108270247544,0.040680100848601325,0.08265889847029873,0.004121533727571819,0.002676065224555684,1012.9857621373839,1180.347553327236,14.230000000000002,1.0,-0.2452983206010298,510.0
11,2.0,0.09572834938139431,0.05458823872043954,0.03830843665921198,0.07814024373785387,0.004051858910157694,0.0027519210322968393,1001.0023432936991,1162.4203743449777,13.56,1.0,-0.21546704292256247,510.0
12,2.2000000000000006,0.10070383531597826,0.06168827816938956,0.03610472233199019,0.07392004764616,0.004016487671328376,0.0028266126729415532,991.3538196615581,1146.56268754107,13.06,1.0,-0.1891207086947705,510.0
13,2.4,0.10526304553491962,0.0682106634013828,0.03406696848592577,0.07000611972220436,0.003998074050092384,0.002897262890536052,983.242805199827,1132.3149070581019,12.67,1.0,-0.16646531102840756,510.0
14,2.6000000000000005,0.10945612414928066,0.07421672423906721,0.0321850773688623,0.06638448686706806,0.003988103742726785,0.0029626475686809575,976.2180431822518,1119.3823337665035,12.38,1.0,-0.14884007345755956,510.0
